Tiempo[s] SeñalEMG_Filtrada
5.000000000000000104e-04 1.452752568001253099e-03
7.500000000000000156e-04 3.878937904030213372e-03
1.000000000000000021e-03 5.873522915511225802e-03
1.250000000000000026e-03 6.713306170788116770e-03
1.500000000000000031e-03 6.328426047286709114e-03
1.750000000000000036e-03 5.681902537348144239e-03
2.000000000000000042e-03 5.516108654403577803e-03
2.249999999999999830e-03 5.335590698064202227e-03
2.500000000000000052e-03 4.101605643833139934e-03
2.749999999999999840e-03 1.814570188419812897e-03
3.000000000000000062e-03 -4.662655875643624483e-05
3.249999999999999851e-03 -3.200366450994228786e-04
3.500000000000000073e-03 -1.748705957152901509e-06
3.749999999999999861e-03 -1.063890345234150573e-03
4.000000000000000083e-03 -3.839786418976315861e-03
4.250000000000000305e-03 -7.009936191122943458e-03
4.499999999999999660e-03 -9.715802706106174344e-03
4.749999999999999882e-03 -1.231084606976416522e-02
5.000000000000000104e-03 -1.524756161844601637e-02
5.250000000000000326e-03 -1.812956472353260268e-02
5.499999999999999681e-03 -1.999437178527552553e-02
5.749999999999999903e-03 -2.035818939392707375e-02
6.000000000000000125e-03 -1.973957155263208335e-02
6.250000000000000347e-03 -1.893336117133415097e-02
6.499999999999999702e-03 -1.813539332100575635e-02
6.749999999999999924e-03 -1.712791847762222541e-02
7.000000000000000146e-03 -1.590985776693211798e-02
7.250000000000000368e-03 -1.484165515711462907e-02
7.499999999999999722e-03 -1.440477540395893562e-02
7.749999999999999944e-03 -1.475735717898203105e-02
8.000000000000000167e-03 -1.529263302669930241e-02
8.250000000000000389e-03 -1.498824766808820944e-02
8.500000000000000611e-03 -1.350694769237116219e-02
8.750000000000000833e-03 -1.140970705353856057e-02
8.999999999999999320e-03 -8.976022822675479990e-03
9.249999999999999542e-03 -5.730815657138852229e-03
9.499999999999999764e-03 -1.660183376901401553e-03
9.749999999999999986e-03 2.173131519341371578e-03
1.000000000000000021e-02 4.935207953511305118e-03
1.025000000000000043e-02 7.053269919835340740e-03
1.050000000000000065e-02 9.359579324483479831e-03
1.074999999999999914e-02 1.200092459611183660e-02
1.099999999999999936e-02 1.477387638707329705e-02
1.124999999999999958e-02 1.788013295654187693e-02
1.149999999999999981e-02 2.167953530592046235e-02
1.175000000000000003e-02 2.613434429756220090e-02
1.200000000000000025e-02 3.105972801009578704e-02
1.225000000000000047e-02 3.648671566680160294e-02
1.250000000000000069e-02 4.234687070235410716e-02
1.274999999999999918e-02 4.817017467546190479e-02
1.299999999999999940e-02 5.304510341272472562e-02
1.324999999999999963e-02 5.524012943944214132e-02
1.349999999999999985e-02 5.229978315917876985e-02
1.375000000000000007e-02 4.282794360532631017e-02
1.400000000000000029e-02 2.836877752890966733e-02
1.425000000000000051e-02 1.271114056093883109e-02
1.450000000000000074e-02 -7.118644599083561765e-04
1.474999999999999922e-02 -1.035046043889201704e-02
1.499999999999999944e-02 -1.616603857805814018e-02
1.524999999999999967e-02 -1.879212460669689444e-02
1.549999999999999989e-02 -1.902484568616319774e-02
1.575000000000000011e-02 -1.751530998683487744e-02
1.600000000000000033e-02 -1.486795244586367262e-02
1.625000000000000056e-02 -1.209610698886611282e-02
1.650000000000000078e-02 -1.050909430302550233e-02
1.675000000000000100e-02 -1.080661745178095219e-02
1.700000000000000122e-02 -1.261765573620094068e-02
1.725000000000000144e-02 -1.516301150982942922e-02
1.750000000000000167e-02 -1.805843797524195327e-02
1.774999999999999842e-02 -2.137424911471635935e-02
1.799999999999999864e-02 -2.544118885672147501e-02
1.824999999999999886e-02 -3.119864187029890157e-02
1.849999999999999908e-02 -4.058713214997901331e-02
1.874999999999999931e-02 -5.511232501724908084e-02
1.899999999999999953e-02 -7.198646609987338629e-02
1.924999999999999975e-02 -8.133133819058048497e-02
1.949999999999999997e-02 -7.015542801579993659e-02
1.975000000000000019e-02 -3.396068162285825753e-02
2.000000000000000042e-02 1.431564816989904301e-02
2.025000000000000064e-02 5.122495384186664252e-02
2.050000000000000086e-02 6.177006221424915372e-02
2.075000000000000108e-02 5.053100615378601501e-02
2.100000000000000130e-02 3.428207215881675513e-02
2.125000000000000153e-02 2.554920378934559880e-02
2.149999999999999828e-02 2.375456793174043554e-02
2.174999999999999850e-02 2.140958919877477759e-02
2.199999999999999872e-02 1.616712489900120828e-02
2.224999999999999895e-02 1.319335777355862965e-02
2.249999999999999917e-02 1.584621709293551617e-02
2.274999999999999939e-02 1.914877130778210729e-02
2.299999999999999961e-02 1.806282888279074281e-02
2.324999999999999983e-02 2.096636866070829275e-02
2.350000000000000006e-02 4.272253430073602587e-02
2.375000000000000028e-02 7.459502240248827576e-02
2.400000000000000050e-02 7.834993214316525456e-02
2.425000000000000072e-02 4.037512821019510756e-02
2.450000000000000094e-02 1.684629670917435484e-02
2.475000000000000117e-02 7.361263269936843545e-02
2.500000000000000139e-02 1.872291636696947481e-01
2.525000000000000161e-02 2.620932324069096819e-01
2.549999999999999836e-02 2.348238097273287750e-01
2.574999999999999858e-02 1.115129986518450800e-01
2.599999999999999881e-02 -6.706728580394040462e-02
2.624999999999999903e-02 -2.438655889334429283e-01
2.649999999999999925e-02 -3.569908194266211421e-01
2.674999999999999947e-02 -3.753012955390132022e-01
2.699999999999999969e-02 -3.166282180244148203e-01
2.724999999999999992e-02 -2.231684072462842283e-01
2.750000000000000014e-02 -1.296967217916107640e-01
2.775000000000000036e-02 -5.340885848087449650e-02
2.800000000000000058e-02 1.412144092767585006e-03
2.825000000000000080e-02 3.561688175204191786e-02
2.850000000000000103e-02 4.937632886317764452e-02
2.875000000000000125e-02 4.304856036659864688e-02
2.900000000000000147e-02 2.215721880293956836e-02
2.925000000000000169e-02 -3.028158586526968898e-03
2.949999999999999845e-02 -2.396298324878521485e-02
2.974999999999999867e-02 -3.748602740753231854e-02
2.999999999999999889e-02 -4.370181641409715684e-02
3.024999999999999911e-02 -4.342638330758595566e-02
3.049999999999999933e-02 -3.820097900239106253e-02
3.074999999999999956e-02 -3.064370918613990025e-02
3.099999999999999978e-02 -2.334069514891720654e-02
3.125000000000000000e-02 -1.746703547313233768e-02
3.150000000000000022e-02 -1.281191519306330677e-02
3.175000000000000044e-02 -8.931175900955646424e-03
3.200000000000000067e-02 -5.715227804762497768e-03
3.225000000000000089e-02 -2.772609473027926388e-03
3.250000000000000111e-02 8.913167496468657035e-04
3.275000000000000133e-02 5.880187968477302955e-03
3.300000000000000155e-02 1.168387557719965594e-02
3.325000000000000178e-02 1.810917472817346122e-02
3.350000000000000200e-02 2.714085546197803067e-02
3.375000000000000222e-02 4.122243759358949766e-02
3.400000000000000244e-02 5.910398425391997362e-02
3.425000000000000266e-02 7.761847680362900237e-02
3.450000000000000289e-02 1.007700763430967039e-01
3.475000000000000311e-02 1.387703770936370151e-01
3.500000000000000333e-02 1.850364006188515431e-01
3.524999999999999661e-02 1.999482416934497964e-01
3.549999999999999684e-02 1.442470907673171765e-01
3.574999999999999706e-02 4.129525156696031707e-02
3.599999999999999728e-02 -2.167273575821264051e-02
3.624999999999999750e-02 1.291754505213184301e-02
3.649999999999999772e-02 9.823010563841721998e-02
3.674999999999999795e-02 1.431447737798624553e-01
3.699999999999999817e-02 1.259731564018209127e-01
3.724999999999999839e-02 9.806056292708879851e-02
3.749999999999999861e-02 9.443572164396961399e-02
3.774999999999999883e-02 9.709850061293523460e-02
3.799999999999999906e-02 8.031518038336965537e-02
3.824999999999999928e-02 4.671161769383391782e-02
3.849999999999999950e-02 1.306884861006030879e-02
3.874999999999999972e-02 -1.298860775931685342e-02
3.899999999999999994e-02 -3.385846391319920212e-02
3.925000000000000017e-02 -5.218656602832387470e-02
3.950000000000000039e-02 -6.759477850916935371e-02
3.975000000000000061e-02 -7.917792565712768182e-02
4.000000000000000083e-02 -8.692720586910890335e-02
4.025000000000000105e-02 -9.129738887565452821e-02
4.050000000000000128e-02 -9.302640407739440342e-02
4.075000000000000150e-02 -9.299865762441507366e-02
4.100000000000000172e-02 -9.161388084582476610e-02
4.125000000000000194e-02 -8.882375828501433424e-02
4.150000000000000216e-02 -8.499121955475628931e-02
4.175000000000000239e-02 -8.081927927825044433e-02
4.200000000000000261e-02 -7.625332187739712608e-02
4.225000000000000283e-02 -7.056228531930550107e-02
4.250000000000000305e-02 -6.383407409887613404e-02
4.275000000000000328e-02 -5.722695994418459248e-02
4.299999999999999656e-02 -5.128067454262710823e-02
4.324999999999999678e-02 -4.520765659545511461e-02
4.349999999999999700e-02 -3.847500908117597318e-02
4.374999999999999722e-02 -3.185790813734112881e-02
4.399999999999999745e-02 -2.620090625370557688e-02
4.424999999999999767e-02 -2.129995637824804930e-02
4.449999999999999789e-02 -1.680256532929915586e-02
4.474999999999999811e-02 -1.315120915328445682e-02
4.499999999999999833e-02 -1.068824134883695695e-02
4.524999999999999856e-02 -8.640473132759500519e-03
4.549999999999999878e-02 -6.102023296012286553e-03
4.574999999999999900e-02 -3.577208360541686907e-03
4.599999999999999922e-02 -2.367940485404518465e-03
4.624999999999999944e-02 -2.535709473634050089e-03
4.649999999999999967e-02 -2.584270562631211209e-03
4.674999999999999989e-02 -1.218115877622040228e-03
4.700000000000000011e-02 1.533989221220055654e-03
4.725000000000000033e-02 4.931104116390119287e-03
4.750000000000000056e-02 8.426289740971334638e-03
4.775000000000000078e-02 1.197661041180659441e-02
4.800000000000000100e-02 1.591314941015219489e-02
4.825000000000000122e-02 2.031434775679818311e-02
4.850000000000000144e-02 2.438439586658396399e-02
4.875000000000000167e-02 2.693350273657826519e-02
4.900000000000000189e-02 2.753461105360503758e-02
4.925000000000000211e-02 2.671291955310141006e-02
4.950000000000000233e-02 2.512083646598966755e-02
4.975000000000000255e-02 2.319172728457758598e-02
5.000000000000000278e-02 2.155226396662737048e-02
5.025000000000000300e-02 2.091106116278676139e-02
5.050000000000000322e-02 2.119634722254187462e-02
5.075000000000000344e-02 2.148816280477731586e-02
5.099999999999999672e-02 2.113087225945506700e-02
5.124999999999999695e-02 2.022481203792171264e-02
5.149999999999999717e-02 1.888537699473372480e-02
5.174999999999999739e-02 1.694214496329544961e-02
5.199999999999999761e-02 1.453222024642026808e-02
5.224999999999999784e-02 1.209054518226844802e-02
5.249999999999999806e-02 9.636129192328117196e-03
5.274999999999999828e-02 6.804606369216439909e-03
5.299999999999999850e-02 3.620728161597331143e-03
5.324999999999999872e-02 7.311455770198135428e-04
5.349999999999999895e-02 -1.139568895573683663e-03
5.374999999999999917e-02 -1.884140072952712741e-03
5.399999999999999939e-02 -2.367485683331028816e-03
5.424999999999999961e-02 -3.822835169704163170e-03
5.449999999999999983e-02 -6.454084339067489920e-03
5.475000000000000006e-02 -9.074318781648922291e-03
5.500000000000000028e-02 -1.064083106264098258e-02
5.525000000000000050e-02 -1.158813735956584073e-02
5.550000000000000072e-02 -1.301299027499205029e-02
5.575000000000000094e-02 -1.498841932100622963e-02
5.600000000000000117e-02 -1.642544014053093013e-02
5.625000000000000139e-02 -1.645150513363536141e-02
5.650000000000000161e-02 -1.520440182277500545e-02
5.675000000000000183e-02 -1.322009381732168649e-02
5.700000000000000205e-02 -1.076894832945445891e-02
5.725000000000000228e-02 -8.074074263526253431e-03
5.750000000000000250e-02 -5.585619020097701282e-03
5.775000000000000272e-02 -3.544339294754097081e-03
5.800000000000000294e-02 -1.561036886029599320e-03
5.825000000000000316e-02 8.564511025957949678e-04
5.850000000000000339e-02 3.479198588021603818e-03
5.874999999999999667e-02 5.587661341746799105e-03
5.899999999999999689e-02 6.998380599911349989e-03
5.924999999999999711e-02 8.433215128746575015e-03
5.949999999999999734e-02 1.089876781930767917e-02
5.974999999999999756e-02 1.487194724104772339e-02
5.999999999999999778e-02 1.991639657164421748e-02
6.024999999999999800e-02 2.509737101509723275e-02
6.049999999999999822e-02 2.985097200146146282e-02
6.074999999999999845e-02 3.403995030533734506e-02
6.099999999999999867e-02 3.716647807027097933e-02
6.124999999999999889e-02 3.844391581313411771e-02
6.149999999999999911e-02 3.779482247311115317e-02
6.174999999999999933e-02 3.580910216987048811e-02
6.199999999999999956e-02 3.270181754036442789e-02
6.224999999999999978e-02 2.830589236653804908e-02
6.250000000000000000e-02 2.298221772122633830e-02
6.275000000000000022e-02 1.765726707347611835e-02
6.300000000000000044e-02 1.322846341395382368e-02
6.325000000000000067e-02 1.060229067118288390e-02
6.350000000000000089e-02 1.060329032005461088e-02
6.375000000000000111e-02 1.274409666291123795e-02
6.400000000000000133e-02 1.445315783516181937e-02
6.425000000000000155e-02 1.247022383484694755e-02
6.450000000000000178e-02 5.061385399816395979e-03
6.475000000000000200e-02 -7.048965074258387552e-03
6.500000000000000222e-02 -2.112336097679183913e-02
6.525000000000000244e-02 -3.361338707718069391e-02
6.550000000000000266e-02 -4.177860802149858943e-02
6.575000000000000289e-02 -4.494595585990662084e-02
6.600000000000000311e-02 -4.456440442249447187e-02
6.625000000000000333e-02 -4.297590601050058773e-02
6.650000000000000355e-02 -4.175186744587032484e-02
6.675000000000000377e-02 -4.090698502882734316e-02
6.700000000000000400e-02 -3.960955734447436927e-02
6.725000000000000422e-02 -3.754221907459014823e-02
6.750000000000000444e-02 -3.526670929885264427e-02
6.775000000000000466e-02 -3.308162250704714535e-02
6.800000000000000488e-02 -3.017365893324988960e-02
6.825000000000000511e-02 -2.562084448151191046e-02
6.850000000000000533e-02 -1.937714423191451776e-02
6.875000000000000555e-02 -1.135893208427178440e-02
6.900000000000000577e-02 -1.500065030095599052e-03
6.925000000000000600e-02 7.664243048233632637e-03
6.950000000000000622e-02 1.218384293575781180e-02
6.975000000000000644e-02 1.362431834593126438e-02
7.000000000000000666e-02 1.806230052106274839e-02
7.025000000000000688e-02 2.105369221429770343e-02
7.049999999999999323e-02 4.967081014627872625e-03
7.074999999999999345e-02 -3.138865692865901169e-02
7.099999999999999367e-02 -5.340370033135635741e-02
7.124999999999999389e-02 -3.218678174750000398e-02
7.149999999999999412e-02 4.350579304070662998e-03
7.174999999999999434e-02 4.643466839623546644e-03
7.199999999999999456e-02 -2.845929326840392071e-02
7.224999999999999478e-02 -4.208953545326699769e-02
7.249999999999999500e-02 -1.284030856574547991e-02
7.274999999999999523e-02 2.728024942845989897e-02
7.299999999999999545e-02 4.507492302270948298e-02
7.324999999999999567e-02 4.441580860613359577e-02
7.349999999999999589e-02 4.485590495447890069e-02
7.374999999999999611e-02 5.156960331990936147e-02
7.399999999999999634e-02 5.635710085732238694e-02
7.424999999999999656e-02 5.359442638873380960e-02
7.449999999999999678e-02 4.570621910248581082e-02
7.474999999999999700e-02 3.730643829103930803e-02
7.499999999999999722e-02 3.003968136454525026e-02
7.524999999999999745e-02 2.323308262405640590e-02
7.549999999999999767e-02 1.652310955204803686e-02
7.574999999999999789e-02 1.056184694459241791e-02
7.599999999999999811e-02 6.070486734701573822e-03
7.624999999999999833e-02 3.108280797641877185e-03
7.649999999999999856e-02 1.421619601099216243e-03
7.674999999999999878e-02 1.208113918678346528e-03
7.699999999999999900e-02 2.850601832906141976e-03
7.724999999999999922e-02 5.524687598487372855e-03
7.749999999999999944e-02 6.845718073406783025e-03
7.774999999999999967e-02 4.904203395245312382e-03
7.799999999999999989e-02 2.068865168109294849e-04
7.825000000000000011e-02 -5.530390995848908156e-03
7.850000000000000033e-02 -1.202131389649573577e-02
7.875000000000000056e-02 -2.037918044342493587e-02
7.900000000000000078e-02 -3.064658472464022385e-02
7.925000000000000100e-02 -4.072322100007279982e-02
7.950000000000000122e-02 -4.792916596506235222e-02
7.975000000000000144e-02 -5.088098367903366726e-02
8.000000000000000167e-02 -4.981327914509916382e-02
8.025000000000000189e-02 -4.577324936955144696e-02
8.050000000000000211e-02 -3.994634197790133956e-02
8.075000000000000233e-02 -3.340959702450038010e-02
8.100000000000000255e-02 -2.679591348156882408e-02
8.125000000000000278e-02 -2.004086840519063439e-02
8.150000000000000300e-02 -1.278803193781656231e-02
8.175000000000000322e-02 -4.915777327648382031e-03
8.200000000000000344e-02 3.534929278938348136e-03
8.225000000000000366e-02 1.228034913917401029e-02
8.250000000000000389e-02 2.005079524835047186e-02
8.275000000000000411e-02 2.471580518215069425e-02
8.300000000000000433e-02 2.509487819240166853e-02
8.325000000000000455e-02 2.221195228617990278e-02
8.350000000000000477e-02 1.809954591104566413e-02
8.375000000000000500e-02 1.387299035795558702e-02
8.400000000000000522e-02 9.571672226230483818e-03
8.425000000000000544e-02 5.283512294997694432e-03
8.450000000000000566e-02 1.528737596671189735e-03
8.475000000000000588e-02 -1.344958795543755269e-03
8.500000000000000611e-02 -3.482312199505822447e-03
8.525000000000000633e-02 -5.165139872631315313e-03
8.550000000000000655e-02 -6.574274946006763119e-03
8.575000000000000677e-02 -7.925342988762632684e-03
8.599999999999999312e-02 -9.326782059179819506e-03
8.624999999999999334e-02 -1.031623069289130772e-02
8.649999999999999356e-02 -9.996372097988651811e-03
8.674999999999999378e-02 -8.017657563314460265e-03
8.699999999999999400e-02 -5.149540536717085032e-03
8.724999999999999423e-02 -2.427249661431883036e-03
8.749999999999999445e-02 -4.572764141443688138e-05
8.774999999999999467e-02 2.307972555630323150e-03
8.799999999999999489e-02 4.517473008068808790e-03
8.824999999999999512e-02 6.324345127738946470e-03
8.849999999999999534e-02 8.080002874383105174e-03
8.874999999999999556e-02 1.016695210036367911e-02
8.899999999999999578e-02 1.200658004298269139e-02
8.924999999999999600e-02 1.268755014649142893e-02
8.949999999999999623e-02 1.243545980714073386e-02
8.974999999999999645e-02 1.255180276421818258e-02
8.999999999999999667e-02 1.389813907714666438e-02
9.024999999999999689e-02 1.618043693512804387e-02
9.049999999999999711e-02 1.879784542974438297e-02
9.074999999999999734e-02 2.168274389410327144e-02
9.099999999999999756e-02 2.490214676398011875e-02
9.124999999999999778e-02 2.780737096778006928e-02
9.149999999999999800e-02 2.922948001241586213e-02
9.174999999999999822e-02 2.868930119429487224e-02
9.199999999999999845e-02 2.687604481688663990e-02
9.224999999999999867e-02 2.457505741925145037e-02
9.249999999999999889e-02 2.165141788599509592e-02
9.274999999999999911e-02 1.751571391068405814e-02
9.299999999999999933e-02 1.213747072213358993e-02
9.324999999999999956e-02 6.198665744581275880e-03
9.349999999999999978e-02 4.651485472768086956e-04
9.375000000000000000e-02 -4.747381642713994175e-03
9.400000000000000022e-02 -9.386090763410279147e-03
9.425000000000000044e-02 -1.297836782521449676e-02
9.450000000000000067e-02 -1.464003147752530182e-02
9.475000000000000089e-02 -1.413678344580733721e-02
9.500000000000000111e-02 -1.235154182690531566e-02
9.525000000000000133e-02 -1.026986037185278859e-02
9.550000000000000155e-02 -8.248652005798213019e-03
9.575000000000000178e-02 -6.597594572271660643e-03
9.600000000000000200e-02 -5.852921270350783071e-03
9.625000000000000222e-02 -6.042736056529234359e-03
9.650000000000000244e-02 -6.511006380273944884e-03
9.675000000000000266e-02 -6.767429523813795443e-03
9.700000000000000289e-02 -6.947131724123664295e-03
9.725000000000000311e-02 -7.304628088316856942e-03
9.750000000000000333e-02 -7.602603313963291441e-03
9.775000000000000355e-02 -7.130820764550099833e-03
9.800000000000000377e-02 -5.405768213281840137e-03
9.825000000000000400e-02 -2.974133015494952875e-03
9.850000000000000422e-02 -1.170470284786869928e-03
9.875000000000000444e-02 -5.606742910072511120e-04
9.900000000000000466e-02 -1.474200771379080891e-04
9.925000000000000488e-02 9.345664014828888823e-04
9.950000000000000511e-02 1.755618713343408237e-03
9.975000000000000533e-02 1.167083620254771121e-03
1.000000000000000056e-01 -4.812675784769698427e-05
1.002500000000000058e-01 -8.529139850452371755e-04
1.005000000000000060e-01 -2.748053647981961792e-03
1.007500000000000062e-01 -8.105604870849516391e-03
1.010000000000000064e-01 -1.619375916563320708e-02
1.012500000000000067e-01 -2.332579874782787083e-02
1.015000000000000069e-01 -2.675807417728065518e-02
1.017499999999999932e-01 -2.672836429068335337e-02
1.019999999999999934e-01 -2.505650031986340551e-02
1.022499999999999937e-01 -2.307802916369226104e-02
1.024999999999999939e-01 -2.082583685725220707e-02
1.027499999999999941e-01 -1.762465064319750085e-02
1.029999999999999943e-01 -1.344928332763974804e-02
1.032499999999999946e-01 -9.534109555204764788e-03
1.034999999999999948e-01 -7.207364447373867077e-03
1.037499999999999950e-01 -6.042710300860137766e-03
1.039999999999999952e-01 -3.714108320530204194e-03
1.042499999999999954e-01 1.572741932416990953e-03
1.044999999999999957e-01 8.653873201929307771e-03
1.047499999999999959e-01 1.437277794189975415e-02
1.049999999999999961e-01 1.690313870568730878e-02
1.052499999999999963e-01 1.657356199846159867e-02
1.054999999999999966e-01 1.239666935496026162e-02
1.057499999999999968e-01 -1.186682579369634401e-03
1.059999999999999970e-01 -3.113602689071833310e-02
1.062499999999999972e-01 -7.604645063789942927e-02
1.064999999999999974e-01 -1.198634184957678289e-01
1.067499999999999977e-01 -1.401006132890041667e-01
1.069999999999999979e-01 -1.248726125881731985e-01
1.072499999999999981e-01 -8.036148450097496676e-02
1.074999999999999983e-01 -2.291162742537187352e-02
1.077499999999999986e-01 3.211328772330178383e-02
1.079999999999999988e-01 7.422463296311941627e-02
1.082499999999999990e-01 9.677926696940715445e-02
1.084999999999999992e-01 9.792140520581701923e-02
1.087499999999999994e-01 8.322619167127680295e-02
1.089999999999999997e-01 6.376228319940785427e-02
1.092499999999999999e-01 4.878762036463780288e-02
1.095000000000000001e-01 4.066634496666296505e-02
1.097500000000000003e-01 3.681876385259933576e-02
1.100000000000000006e-01 3.426204828008177355e-02
1.102500000000000008e-01 3.163084125781767675e-02
1.105000000000000010e-01 2.953561090124034311e-02
1.107500000000000012e-01 3.027442179982058751e-02
1.110000000000000014e-01 3.503967159744630910e-02
1.112500000000000017e-01 4.041334045170578981e-02
1.115000000000000019e-01 4.089377680332797332e-02
1.117500000000000021e-01 3.801808895868442201e-02
1.120000000000000023e-01 4.249000693485975588e-02
1.122500000000000026e-01 5.832473552067739958e-02
1.125000000000000028e-01 6.909077519880590934e-02
1.127500000000000030e-01 5.901265981418390288e-02
1.130000000000000032e-01 4.782529874728125296e-02
1.132500000000000034e-01 7.451986769376767183e-02
1.135000000000000037e-01 1.383159989932859213e-01
1.137500000000000039e-01 1.861617537600272765e-01
1.140000000000000041e-01 1.642543364416503282e-01
1.142500000000000043e-01 6.033776154941719594e-02
1.145000000000000046e-01 -9.056904416838235106e-02
1.147500000000000048e-01 -2.196015388063979612e-01
1.150000000000000050e-01 -2.647388133840265501e-01
1.152500000000000052e-01 -2.206679688968267994e-01
1.155000000000000054e-01 -1.396736252811115742e-01
1.157500000000000057e-01 -7.831351292644209150e-02
1.160000000000000059e-01 -5.269872867859767135e-02
1.162500000000000061e-01 -4.507995877767567022e-02
1.165000000000000063e-01 -3.739859897789551968e-02
1.167500000000000066e-01 -2.773132436982336455e-02
1.170000000000000068e-01 -2.207213299769757164e-02
1.172499999999999931e-01 -2.231804670915725833e-02
1.174999999999999933e-01 -2.450009488002838354e-02
1.177499999999999936e-01 -2.483911980714531911e-02
1.179999999999999938e-01 -2.399506980651880741e-02
1.182499999999999940e-01 -2.428147002447163250e-02
1.184999999999999942e-01 -2.509090987069983666e-02
1.187499999999999944e-01 -2.369517349584669003e-02
1.189999999999999947e-01 -1.924195736877412286e-02
1.192499999999999949e-01 -1.351582346693199800e-02
1.194999999999999951e-01 -8.425616573847384896e-03
1.197499999999999953e-01 -4.479074485709867715e-03
1.199999999999999956e-01 -1.351795438424821874e-03
1.202499999999999958e-01 1.372981309270682529e-03
1.204999999999999960e-01 4.037445882342904219e-03
1.207499999999999962e-01 6.511302925663501641e-03
1.209999999999999964e-01 7.877322010250121034e-03
1.212499999999999967e-01 7.412063359405159264e-03
1.214999999999999969e-01 5.980229494731902247e-03
1.217499999999999971e-01 5.639309770513281986e-03
1.219999999999999973e-01 7.768729600485281550e-03
1.222499999999999976e-01 1.203999935728221338e-02
1.224999999999999978e-01 1.703413452824830560e-02
1.227499999999999980e-01 2.157240167372170142e-02
1.229999999999999982e-01 2.563940776155847201e-02
1.232499999999999984e-01 3.015863511386372361e-02
1.234999999999999987e-01 3.593020881507271586e-02
1.237499999999999989e-01 4.286103771038645566e-02
1.239999999999999991e-01 4.996228853754326737e-02
1.242499999999999993e-01 5.575255788295920695e-02
1.244999999999999996e-01 5.869964451031829678e-02
1.247499999999999998e-01 5.750597489922616712e-02
1.250000000000000000e-01 5.128355602240165789e-02
1.252500000000000002e-01 3.997226699307281778e-02
1.255000000000000004e-01 2.491392819382114154e-02
1.257500000000000007e-01 8.636953588071441534e-03
1.260000000000000009e-01 -6.425859431101048000e-03
1.262500000000000011e-01 -1.878409395741047205e-02
1.265000000000000013e-01 -2.725143039086520835e-02
1.267500000000000016e-01 -3.038075908487477064e-02
1.270000000000000018e-01 -2.764483763723497162e-02
1.272500000000000020e-01 -2.087371444610610499e-02
1.275000000000000022e-01 -1.341789940870660551e-02
1.277500000000000024e-01 -7.676703012986878065e-03
1.280000000000000027e-01 -4.023066868864196358e-03
1.282500000000000029e-01 -2.044593677429661777e-03
1.285000000000000031e-01 -1.763812512456687780e-03
1.287500000000000033e-01 -3.176841545034564049e-03
1.290000000000000036e-01 -5.515472077342601503e-03
1.292500000000000038e-01 -7.653594965871458010e-03
1.295000000000000040e-01 -8.762270908060478328e-03
1.297500000000000042e-01 -8.393915762914478176e-03
1.300000000000000044e-01 -6.559924708191167131e-03
1.302500000000000047e-01 -3.784250308595291969e-03
1.305000000000000049e-01 -6.505259877629945495e-04
1.307500000000000051e-01 2.489731500282598570e-03
1.310000000000000053e-01 5.226902450773319997e-03
1.312500000000000056e-01 7.237683516803388242e-03
1.315000000000000058e-01 8.941831419670186534e-03
1.317500000000000060e-01 1.114493081684187793e-02
1.320000000000000062e-01 1.383496232716286203e-02
1.322500000000000064e-01 1.627028809459142231e-02
1.325000000000000067e-01 1.825095657483437675e-02
1.327500000000000069e-01 2.002463937516172840e-02
1.330000000000000071e-01 2.093480230216544086e-02
1.332500000000000073e-01 1.987217565331867927e-02
1.335000000000000075e-01 1.733082084800324080e-02
1.337500000000000078e-01 1.509046363417486034e-02
1.340000000000000080e-01 1.341475341323696002e-02
1.342500000000000082e-01 1.058334652854244808e-02
1.345000000000000084e-01 5.746374816706200338e-03
1.347500000000000087e-01 2.702366241573575046e-04
1.350000000000000089e-01 -4.394427322774758539e-03
1.352500000000000091e-01 -8.462627069193205329e-03
1.355000000000000093e-01 -1.268862077229475013e-02
1.357500000000000095e-01 -1.679151357339923531e-02
1.360000000000000098e-01 -1.993690041375617214e-02
1.362500000000000100e-01 -2.217742561644901397e-02
1.365000000000000102e-01 -2.452180929315886382e-02
1.367500000000000104e-01 -2.753765502818518451e-02
1.370000000000000107e-01 -3.046556848827976921e-02
1.372500000000000109e-01 -3.200678117227666319e-02
1.375000000000000111e-01 -3.162830160860330420e-02
1.377500000000000113e-01 -2.973993419985558953e-02
1.380000000000000115e-01 -2.688013503634758411e-02
1.382500000000000118e-01 -2.329626154748383818e-02
1.385000000000000120e-01 -1.946162386939992439e-02
1.387500000000000122e-01 -1.657052507504699554e-02
1.390000000000000124e-01 -1.586058931105557152e-02
1.392500000000000127e-01 -1.719988815577448010e-02
1.395000000000000129e-01 -1.893360237772203497e-02
1.397500000000000131e-01 -1.967882002701018193e-02
1.400000000000000133e-01 -1.972231663723710698e-02
1.402500000000000135e-01 -2.007379889916537791e-02
1.405000000000000138e-01 -2.086144696484391187e-02
1.407499999999999862e-01 -2.140501170883471471e-02
1.409999999999999865e-01 -2.136500819909266033e-02
1.412499999999999867e-01 -2.118244657569499922e-02
1.414999999999999869e-01 -2.167718284699473100e-02
1.417499999999999871e-01 -2.368290077908561525e-02
1.419999999999999873e-01 -2.760810838870371431e-02
1.422499999999999876e-01 -3.238611224712477366e-02
1.424999999999999878e-01 -3.518356212939575955e-02
1.427499999999999880e-01 -3.367143673607955745e-02
1.429999999999999882e-01 -2.869178853962471923e-02
1.432499999999999885e-01 -2.334671056106556175e-02
1.434999999999999887e-01 -1.963729070742257360e-02
1.437499999999999889e-01 -1.726888454087202596e-02
1.439999999999999891e-01 -1.520617483602540801e-02
1.442499999999999893e-01 -1.287702211515199223e-02
1.444999999999999896e-01 -9.942453140877181850e-03
1.447499999999999898e-01 -6.000036968860577094e-03
1.449999999999999900e-01 -8.743163203747567622e-04
1.452499999999999902e-01 5.150910903558212489e-03
1.454999999999999905e-01 1.184859364741889902e-02
1.457499999999999907e-01 2.004238861576012123e-02
1.459999999999999909e-01 3.125028104067457957e-02
1.462499999999999911e-01 4.510195032940689241e-02
1.464999999999999913e-01 5.888177857634750018e-02
1.467499999999999916e-01 7.364589345381949981e-02
1.469999999999999918e-01 9.824363485444816135e-02
1.472499999999999920e-01 1.360761019561937957e-01
1.474999999999999922e-01 1.653280782191338949e-01
1.477499999999999925e-01 1.497149840153685629e-01
1.479999999999999927e-01 8.275133741714982283e-02
1.482499999999999929e-01 8.770111060659398217e-03
1.484999999999999931e-01 -1.790773434717633783e-02
1.487499999999999933e-01 1.115074175499783035e-02
1.489999999999999936e-01 5.867672359192988019e-02
1.492499999999999938e-01 9.143010995261625917e-02
1.494999999999999940e-01 1.090928141123976985e-01
1.497499999999999942e-01 1.236265816810023510e-01
1.499999999999999944e-01 1.328216107876515895e-01
1.502499999999999947e-01 1.251545518731213558e-01
1.504999999999999949e-01 9.806862678802363842e-02
1.507499999999999951e-01 6.055021279173544713e-02
1.509999999999999953e-01 2.274314856533578288e-02
1.512499999999999956e-01 -1.004948505634919824e-02
1.514999999999999958e-01 -3.588751864498177652e-02
1.517499999999999960e-01 -5.455161327627124079e-02
1.519999999999999962e-01 -6.773429510407572018e-02
1.522499999999999964e-01 -7.785054802004767738e-02
1.524999999999999967e-01 -8.576586455569475131e-02
1.527499999999999969e-01 -9.094615416768786487e-02
1.529999999999999971e-01 -9.351246950356253973e-02
1.532499999999999973e-01 -9.435456930627111882e-02
1.534999999999999976e-01 -9.352198679362290490e-02
1.537499999999999978e-01 -9.046169107131984966e-02
1.539999999999999980e-01 -8.574725236984179211e-02
1.542499999999999982e-01 -8.079002075609888200e-02
1.544999999999999984e-01 -7.588212616299142010e-02
1.547499999999999987e-01 -7.012728880075734528e-02
1.549999999999999989e-01 -6.333218055325290363e-02
1.552499999999999991e-01 -5.652329494622555794e-02
1.554999999999999993e-01 -5.031703278287732312e-02
1.557499999999999996e-01 -4.375757419888093303e-02
1.559999999999999998e-01 -3.511076378081733063e-02
1.562500000000000000e-01 -2.347342373241778635e-02
1.565000000000000002e-01 -9.809440081153288082e-03
1.567500000000000004e-01 2.998103420689695545e-03
1.570000000000000007e-01 1.130266276237409766e-02
1.572500000000000009e-01 1.302876540422223846e-02
1.575000000000000011e-01 9.488919272693078361e-03
1.577500000000000013e-01 4.354089156068908888e-03
1.580000000000000016e-01 4.855481013784116676e-04
1.582500000000000018e-01 -1.944825928390836933e-03
1.585000000000000020e-01 -4.378643902056582847e-03
1.587500000000000022e-01 -7.413937548706520109e-03
1.590000000000000024e-01 -9.703977512834820532e-03
1.592500000000000027e-01 -9.582991451449840090e-03
1.595000000000000029e-01 -7.423715126834921907e-03
1.600000000000000033e-01 -5.290396794868641554e-03
1.602500000000000036e-01 -4.227887903088143814e-03
1.605000000000000038e-01 -3.180856298704819694e-03
1.607500000000000040e-01 -9.265404818289189968e-04
1.610000000000000042e-01 2.113578480601484462e-03
1.612500000000000044e-01 4.611348573785866399e-03
1.615000000000000047e-01 6.070673900446379306e-03
1.617500000000000049e-01 7.123863381679615241e-03
1.620000000000000051e-01 8.521291923377288108e-03
1.622500000000000053e-01 1.043900262132614262e-02
1.625000000000000056e-01 1.257442406383167330e-02
1.627500000000000058e-01 1.443990567958076086e-02
1.630000000000000060e-01 1.562132261592371653e-02
1.632500000000000062e-01 1.604912709470981622e-02
1.635000000000000064e-01 1.603836577254556806e-02
1.637500000000000067e-01 1.588801273457536231e-02
1.640000000000000069e-01 1.535662933005642848e-02
1.642500000000000071e-01 1.375079886700191628e-02
1.645000000000000073e-01 1.081810647804772735e-02
1.647500000000000075e-01 7.389206312922191357e-03
1.650000000000000078e-01 4.825426003295194693e-03
1.652500000000000080e-01 3.953319608221163815e-03
1.655000000000000082e-01 4.654643338491240220e-03
1.657500000000000084e-01 6.168279060152994167e-03
1.660000000000000087e-01 7.466385195766455860e-03
1.662500000000000089e-01 7.575142526415226500e-03
1.665000000000000091e-01 6.310061014411306839e-03
1.667500000000000093e-01 4.939484658576142467e-03
1.670000000000000095e-01 5.244965799304905987e-03
1.672500000000000098e-01 7.495777368376224832e-03
1.675000000000000100e-01 1.012577564099140237e-02
1.677500000000000102e-01 1.175642322306982152e-02
1.680000000000000104e-01 1.283735012289913963e-02
1.682500000000000107e-01 1.466995945960791227e-02
1.685000000000000109e-01 1.721071315775314983e-02
1.687500000000000111e-01 1.938134382932226590e-02
1.690000000000000113e-01 2.205288137979082366e-02
1.692500000000000115e-01 2.755863096274990820e-02
1.695000000000000118e-01 3.359549807886060002e-02
1.697500000000000120e-01 3.332317328216433810e-02
1.700000000000000122e-01 2.982252034346330113e-02
1.702500000000000124e-01 4.258778891728190463e-02
1.705000000000000127e-01 7.937652953819530899e-02
1.707500000000000129e-01 1.055739092048889050e-01
1.710000000000000131e-01 7.451283135119228518e-02
1.712500000000000133e-01 -5.876175001363037262e-03
1.715000000000000135e-01 -7.264868926240374003e-02
1.717500000000000138e-01 -8.312656036441394558e-02
1.719999999999999862e-01 -5.625393356799030659e-02
1.722499999999999865e-01 -3.217828308258078446e-02
1.724999999999999867e-01 -2.440966708959092790e-02
1.727499999999999869e-01 -2.289993045199972474e-02
1.729999999999999871e-01 -1.968368513822185348e-02
1.732499999999999873e-01 -1.629188364134031772e-02
1.734999999999999876e-01 -1.556340330013861184e-02
1.737499999999999878e-01 -1.713535064354670609e-02
1.739999999999999880e-01 -1.958901714173302139e-02
1.742499999999999882e-01 -2.202598037661810879e-02
1.744999999999999885e-01 -2.351537479435536829e-02
1.747499999999999887e-01 -2.310896961023692006e-02
1.749999999999999889e-01 -2.060135009076132992e-02
1.752499999999999891e-01 -1.690147546266343795e-02
1.754999999999999893e-01 -1.380575477443024383e-02
1.757499999999999896e-01 -1.284899399686505010e-02
1.759999999999999898e-01 -1.365418672651362401e-02
1.762499999999999900e-01 -1.405768389003824413e-02
1.764999999999999902e-01 -1.265400732260545287e-02
1.767499999999999905e-01 -1.043054404987636512e-02
1.769999999999999907e-01 -9.155634982179139403e-03
1.772499999999999909e-01 -9.123384783878855930e-03
1.774999999999999911e-01 -9.206837547438232600e-03
1.777499999999999913e-01 -8.234348999023144433e-03
1.779999999999999916e-01 -5.673327280321625865e-03
1.782499999999999918e-01 -1.598628472213793183e-03
1.784999999999999920e-01 3.430413519986948243e-03
1.787499999999999922e-01 8.704546837200736326e-03
1.789999999999999925e-01 1.385666647799108087e-02
1.792499999999999927e-01 1.869255203009146868e-02
1.794999999999999929e-01 2.236634278094463968e-02
1.797499999999999931e-01 2.354062145261047456e-02
1.799999999999999933e-01 2.202848479055853972e-02
1.802499999999999936e-01 1.947724022542625388e-02
1.804999999999999938e-01 1.747640983268653608e-02
1.807499999999999940e-01 1.567835308440867353e-02
1.809999999999999942e-01 1.290158680063856027e-02
1.812499999999999944e-01 9.415413734266629350e-03
1.814999999999999947e-01 6.599213501257274878e-03
1.817499999999999949e-01 4.680864428735158345e-03
1.819999999999999951e-01 2.552037090118732844e-03
1.822499999999999953e-01 -2.977211218000080451e-04
1.824999999999999956e-01 -3.522962754710564151e-03
1.827499999999999958e-01 -7.375093992961861272e-03
1.829999999999999960e-01 -1.212797162119988968e-02
1.832499999999999962e-01 -1.608239985206859693e-02
1.834999999999999964e-01 -1.664781861690436959e-02
1.837499999999999967e-01 -1.377378265043488828e-02
1.839999999999999969e-01 -1.024566757109322129e-02
1.842499999999999971e-01 -8.378702605152570440e-03
1.844999999999999973e-01 -8.109505845370259397e-03
1.847499999999999976e-01 -8.245584369086738849e-03
1.849999999999999978e-01 -7.986254414928542836e-03
1.852499999999999980e-01 -7.048332414787945345e-03
1.854999999999999982e-01 -5.308660956676153862e-03
1.857499999999999984e-01 -2.654363759259892232e-03
1.859999999999999987e-01 9.525478164475681755e-04
1.862499999999999989e-01 5.172839522713972189e-03
1.864999999999999991e-01 9.206069971427916290e-03
1.867499999999999993e-01 1.258269352876761546e-02
1.869999999999999996e-01 1.625579720065632033e-02
1.872499999999999998e-01 2.203903139181201398e-02
1.875000000000000000e-01 2.982146862860832887e-02
1.877500000000000002e-01 3.621967834116263107e-02
1.880000000000000004e-01 3.831133569415651197e-02
1.882500000000000007e-01 3.801087075106796692e-02
1.885000000000000009e-01 3.943904166522691629e-02
1.887500000000000011e-01 4.257097299039970528e-02
1.890000000000000013e-01 4.338467731883823703e-02
1.892500000000000016e-01 3.947060549100887827e-02
1.895000000000000018e-01 3.128300105541605147e-02
1.897500000000000020e-01 1.942114860431085749e-02
1.900000000000000022e-01 6.054065986340560410e-03
1.902500000000000024e-01 -3.201868942477035292e-03
1.905000000000000027e-01 -7.233617077123349719e-03
1.907500000000000029e-01 -1.781955581927522139e-02
1.910000000000000031e-01 -4.755283476902948808e-02
1.912500000000000033e-01 -8.773651267641974227e-02
1.915000000000000036e-01 -1.126196952360152825e-01
1.917500000000000038e-01 -1.095307496113331475e-01
1.920000000000000040e-01 -9.128004786061195974e-02
1.922500000000000042e-01 -7.502027887142397045e-02
1.925000000000000044e-01 -6.158624611909045005e-02
1.927500000000000047e-01 -4.100028883160814624e-02
1.930000000000000049e-01 -9.883763625380237450e-03
1.932500000000000051e-01 2.299003193595079708e-02
1.935000000000000053e-01 4.612205467954309107e-02
1.937500000000000056e-01 5.531454106723662778e-02
1.940000000000000058e-01 5.327602305034088992e-02
1.942500000000000060e-01 4.350404834749448807e-02
1.945000000000000062e-01 2.835110837513024271e-02
1.947500000000000064e-01 1.115840084643638513e-02
1.950000000000000067e-01 -3.854154094916364091e-03
1.952500000000000069e-01 -1.434190637053911650e-02
1.955000000000000071e-01 -2.067028270400132067e-02
1.957500000000000073e-01 -2.412033907146480735e-02
1.960000000000000075e-01 -2.580068540234772834e-02
1.962500000000000078e-01 -2.721648687641860589e-02
1.965000000000000080e-01 -3.039686084139517006e-02
1.967500000000000082e-01 -3.691571160455184297e-02
1.970000000000000084e-01 -4.691584604497192612e-02
1.972500000000000087e-01 -5.789508409061766558e-02
1.975000000000000089e-01 -6.296666353981984765e-02
1.977500000000000091e-01 -5.194279243054605866e-02
1.980000000000000093e-01 -1.848839755583800773e-02
1.982500000000000095e-01 3.144402365668896165e-02
1.985000000000000098e-01 7.948444789222619544e-02
1.987500000000000100e-01 1.065559376741138375e-01
1.990000000000000102e-01 1.109987010976767052e-01
1.992500000000000104e-01 1.147973019556343954e-01
1.995000000000000107e-01 1.354526556840462692e-01
1.997500000000000109e-01 1.516766708064007096e-01
2.000000000000000111e-01 1.358818957189580345e-01
2.002500000000000113e-01 1.192085516862763234e-01
2.005000000000000115e-01 1.471985980877650591e-01
2.007500000000000118e-01 1.684163378174289294e-01
2.010000000000000120e-01 8.079227438255282001e-02
2.012500000000000122e-01 -9.816144242420594968e-02
2.015000000000000124e-01 -2.284303512805596070e-01
2.017500000000000127e-01 -2.286624167501408456e-01
2.020000000000000129e-01 -1.558549497407585305e-01
2.022500000000000131e-01 -9.821725920366732032e-02
2.025000000000000133e-01 -7.636589765857990098e-02
2.027500000000000135e-01 -6.474630566205187565e-02
2.030000000000000138e-01 -4.893734007072737119e-02
2.032499999999999862e-01 -3.464950435106491089e-02
2.034999999999999865e-01 -2.657465669546509729e-02
2.037499999999999867e-01 -2.095312470087367165e-02
2.039999999999999869e-01 -1.410019708134914104e-02
2.042499999999999871e-01 -7.326417567826615587e-03
2.044999999999999873e-01 -3.217670147280574620e-03
2.047499999999999876e-01 -2.103303381045719227e-03
2.049999999999999878e-01 -3.170191502765924534e-03
2.052499999999999880e-01 -6.043896331975702994e-03
2.054999999999999882e-01 -9.672701651278632282e-03
2.057499999999999885e-01 -1.143406554029709025e-02
2.059999999999999887e-01 -9.244439162325543760e-03
2.062499999999999889e-01 -3.871735231295195083e-03
2.064999999999999891e-01 2.170658424099739924e-03
2.067499999999999893e-01 7.365781249707764079e-03
2.069999999999999896e-01 1.172883108056344340e-02
2.072499999999999898e-01 1.547590974334080854e-02
2.074999999999999900e-01 1.846095125876975884e-02
2.077499999999999902e-01 2.040156126192839078e-02
2.079999999999999905e-01 2.051743671040893308e-02
2.082499999999999907e-01 1.735627560360060787e-02
2.084999999999999909e-01 1.027017354071964837e-02
2.087499999999999911e-01 1.070380718720006803e-03
2.089999999999999913e-01 -6.883876002131569805e-03
2.092499999999999916e-01 -1.143741371789161812e-02
2.094999999999999918e-01 -1.286094200840610935e-02
2.097499999999999920e-01 -1.248245126135932165e-02
2.099999999999999922e-01 -1.087550095265558958e-02
2.102499999999999925e-01 -7.828016033322117775e-03
2.104999999999999927e-01 -3.920524245109724935e-03
2.107499999999999929e-01 -1.211348496244872347e-03
2.109999999999999931e-01 -1.392223655211760440e-03
2.112499999999999933e-01 -3.655918522522893198e-03
2.114999999999999936e-01 -5.521892021410414707e-03
2.117499999999999938e-01 -5.588511356705842814e-03
2.119999999999999940e-01 -4.458964336861256927e-03
2.122499999999999942e-01 -3.218517213839565145e-03
2.124999999999999944e-01 -2.042256606474335701e-03
2.127499999999999947e-01 -3.275183245176024101e-04
2.129999999999999949e-01 2.392554276215584554e-03
2.132499999999999951e-01 5.788760219191462289e-03
2.134999999999999953e-01 9.021736952334774226e-03
2.137499999999999956e-01 1.187820224337717868e-02
2.139999999999999958e-01 1.537306569980758514e-02
2.142499999999999960e-01 2.092828931311590049e-02
2.144999999999999962e-01 2.928971219157980310e-02
2.147499999999999964e-01 4.019382276300844520e-02
2.149999999999999967e-01 5.207118303177453444e-02
2.152499999999999969e-01 6.199466548488213186e-02
2.154999999999999971e-01 6.745537273056458061e-02
2.157499999999999973e-01 6.865028611343550191e-02
2.159999999999999976e-01 6.768162603875946259e-02
2.162499999999999978e-01 6.547581952262769567e-02
2.164999999999999980e-01 6.121493960810305002e-02
2.167499999999999982e-01 5.489306105733586516e-02
2.169999999999999984e-01 4.856791834853445983e-02
2.172499999999999987e-01 4.452147690694767401e-02
2.174999999999999989e-01 4.333554608272838921e-02
2.177499999999999991e-01 4.404819816585294617e-02
2.179999999999999993e-01 4.519465118997958997e-02
2.182499999999999996e-01 4.528109257553963179e-02
2.184999999999999998e-01 4.285164544487731625e-02
2.187500000000000000e-01 3.671487369579325144e-02
2.190000000000000002e-01 2.641071703834757534e-02
2.192500000000000004e-01 1.265122911628663131e-02
2.195000000000000007e-01 -2.757668516153605545e-03
2.197500000000000009e-01 -1.777886493213032271e-02
2.200000000000000011e-01 -3.117581062647584514e-02
2.202500000000000013e-01 -4.261432468738087648e-02
2.205000000000000016e-01 -5.171421220492052051e-02
2.207500000000000018e-01 -5.744726697468836851e-02
2.210000000000000020e-01 -5.905252276536739064e-02
2.212500000000000022e-01 -5.748350564859029677e-02
2.215000000000000024e-01 -5.523242282674843684e-02
2.217500000000000027e-01 -5.421881860400949021e-02
2.220000000000000029e-01 -5.412679637511270264e-02
2.222500000000000031e-01 -5.343632965963773795e-02
2.225000000000000033e-01 -5.206190215270319749e-02
2.227500000000000036e-01 -5.194737720441703482e-02
2.230000000000000038e-01 -5.434059586915618995e-02
2.232500000000000040e-01 -5.754279222462983095e-02
2.235000000000000042e-01 -5.880138442645471697e-02
2.237500000000000044e-01 -5.771421595158201384e-02
2.240000000000000047e-01 -5.609662988937055839e-02
2.242500000000000049e-01 -5.509631037472278309e-02
2.245000000000000051e-01 -5.437011605558382532e-02
2.247500000000000053e-01 -5.378410441049559509e-02
2.250000000000000056e-01 -5.390746559234595170e-02
2.252500000000000058e-01 -5.470037087700502232e-02
2.255000000000000060e-01 -5.533499095862941253e-02
2.257500000000000062e-01 -5.542712552461175751e-02
2.260000000000000064e-01 -5.509816109540333767e-02
2.262500000000000067e-01 -5.395263650257178106e-02
2.265000000000000069e-01 -5.147138687712538713e-02
2.267500000000000071e-01 -4.833651072720381719e-02
2.270000000000000073e-01 -4.578171286752094615e-02
2.272500000000000075e-01 -4.348057932943652504e-02
2.275000000000000078e-01 -3.948963037701475748e-02
2.277500000000000080e-01 -3.250697225451559119e-02
2.280000000000000082e-01 -2.309594062742384088e-02
2.282500000000000084e-01 -1.250987696770298162e-02
2.285000000000000087e-01 -1.108085024017756723e-03
2.287500000000000089e-01 1.180899433457442693e-02
2.290000000000000091e-01 2.689521018015712112e-02
2.292500000000000093e-01 4.358357339344075959e-02
2.295000000000000095e-01 5.986703268794361932e-02
2.297500000000000098e-01 7.315561163523756627e-02
2.300000000000000100e-01 8.150688346526481498e-02
2.302500000000000102e-01 8.450578846288325785e-02
2.305000000000000104e-01 8.343113663051331119e-02
2.307500000000000107e-01 8.043616898421553085e-02
2.310000000000000109e-01 7.698556278994095337e-02
2.312500000000000111e-01 7.306109154969789299e-02
2.315000000000000113e-01 6.821925947310497618e-02
2.317500000000000115e-01 6.290580282817455349e-02
2.320000000000000118e-01 5.804745384813810027e-02
2.322500000000000120e-01 5.386641635173013143e-02
2.325000000000000122e-01 4.988019358265725900e-02
2.327500000000000124e-01 4.583925199304429710e-02
2.330000000000000127e-01 4.205564815267005818e-02
2.332500000000000129e-01 3.880066293054965088e-02
2.335000000000000131e-01 3.582816926410204578e-02
2.337500000000000133e-01 3.263921975403048792e-02
2.340000000000000135e-01 2.889804292557736701e-02
2.342500000000000138e-01 2.455112882957874443e-02
2.344999999999999862e-01 2.000952261595815435e-02
2.347499999999999865e-01 1.623459371896501455e-02
2.349999999999999867e-01 1.392743297154762014e-02
2.352499999999999869e-01 1.243631118884856203e-02
2.354999999999999871e-01 1.021509887623978964e-02
2.357499999999999873e-01 6.641921735015993665e-03
2.359999999999999876e-01 2.717512165190530578e-03
2.362499999999999878e-01 -2.819590458817453180e-04
2.364999999999999880e-01 -2.240178031889912373e-03
2.367499999999999882e-01 -4.006482880876745256e-03
2.369999999999999885e-01 -6.304144943176631655e-03
2.372499999999999887e-01 -9.330970011740909523e-03
2.374999999999999889e-01 -1.314508531392426412e-02
2.377499999999999891e-01 -1.781205378687944832e-02
2.379999999999999893e-01 -2.307643881114088830e-02
2.382499999999999896e-01 -2.820715745047570888e-02
2.384999999999999898e-01 -3.230208895869809971e-02
2.387499999999999900e-01 -3.477394659710816849e-02
2.389999999999999902e-01 -3.570622380837179533e-02
2.392499999999999905e-01 -3.578502469504112743e-02
2.394999999999999907e-01 -3.563466873366914756e-02
2.397499999999999909e-01 -3.509354492167231915e-02
2.399999999999999911e-01 -3.342317140115216856e-02
2.402499999999999913e-01 -3.035199841103575213e-02
2.404999999999999916e-01 -2.654644266279400713e-02
2.407499999999999918e-01 -2.297279801265278421e-02
2.409999999999999920e-01 -2.026137993565578152e-02
2.412499999999999922e-01 -1.866861202625772626e-02
2.414999999999999925e-01 -1.795088076322366027e-02
2.417499999999999927e-01 -1.727029669517443286e-02
2.419999999999999929e-01 -1.622896232874324746e-02
2.422499999999999931e-01 -1.609851569030787063e-02
2.424999999999999933e-01 -1.855544109428437088e-02
2.427499999999999936e-01 -2.277729392802380418e-02
2.429999999999999938e-01 -2.558629270204159159e-02
2.432499999999999940e-01 -2.522913391157123250e-02
2.434999999999999942e-01 -2.329202047230388012e-02
2.437499999999999944e-01 -2.208120240531648987e-02
2.439999999999999947e-01 -2.162077670084247907e-02
2.442499999999999949e-01 -2.017436466711338555e-02
2.444999999999999951e-01 -1.690003854617340776e-02
2.447499999999999953e-01 -1.307430686979202394e-02
2.449999999999999956e-01 -1.060624007001506608e-02
2.452499999999999958e-01 -9.700091629355981487e-03
2.454999999999999960e-01 -8.415484011948606152e-03
2.457499999999999962e-01 -4.723957282765182779e-03
2.459999999999999964e-01 1.516124691952774146e-03
2.462499999999999967e-01 9.575896965746547376e-03
2.464999999999999969e-01 2.021140723945236486e-02
2.467499999999999971e-01 3.412800321275125115e-02
2.469999999999999973e-01 4.814663706878984789e-02
2.472499999999999976e-01 5.990916555585501513e-02
2.474999999999999978e-01 7.996744220723753238e-02
2.477499999999999980e-01 1.247877131997986028e-01
2.479999999999999982e-01 1.797512590352223771e-01
2.482499999999999984e-01 1.849781717529424829e-01
2.484999999999999987e-01 9.760224212004674216e-02
2.487499999999999989e-01 -3.583280525580385262e-02
2.489999999999999991e-01 -1.176047641800477411e-01
2.492499999999999993e-01 -1.126158431258250381e-01
2.494999999999999996e-01 -7.514695507767568672e-02
2.497499999999999998e-01 -5.849893649728966916e-02
2.500000000000000000e-01 -5.033387543405865028e-02
2.502499999999999725e-01 -1.505257894014394061e-02
2.505000000000000004e-01 4.200883386073130804e-02
2.507499999999999729e-01 8.326663044529825086e-02
2.510000000000000009e-01 8.942359596561930135e-02
2.512499999999999734e-01 7.300328646351805784e-02
2.515000000000000013e-01 5.193040590967111514e-02
2.517499999999999738e-01 3.189495483812831295e-02
2.520000000000000018e-01 1.240966056475800369e-02
2.522499999999999742e-01 -4.696669332151293119e-03
2.525000000000000022e-01 -1.649649426524347345e-02
2.527499999999999747e-01 -2.293742704841622224e-02
2.530000000000000027e-01 -2.642757490566200254e-02
2.532499999999999751e-01 -2.882434034820414645e-02
2.535000000000000031e-01 -3.032521351566004608e-02
2.537499999999999756e-01 -3.075269037689215210e-02
2.540000000000000036e-01 -3.055994480954886405e-02
2.542499999999999760e-01 -3.036684418959870874e-02
2.545000000000000040e-01 -3.034043059223262215e-02
2.547499999999999765e-01 -3.035359242958399900e-02
2.550000000000000044e-01 -3.034394251553143920e-02
2.552499999999999769e-01 -3.020491865663425812e-02
2.555000000000000049e-01 -2.944051877696720471e-02
2.557499999999999774e-01 -2.744224742872657802e-02
2.560000000000000053e-01 -2.445677340738014807e-02
2.562499999999999778e-01 -2.181808196338647782e-02
2.565000000000000058e-01 -2.065661324549940975e-02
2.567499999999999782e-01 -2.060890475712875286e-02
2.570000000000000062e-01 -2.024869897156698212e-02
2.572499999999999787e-01 -1.866551040830626007e-02
2.575000000000000067e-01 -1.619691480956920657e-02
2.577499999999999791e-01 -1.368972029364371248e-02
2.580000000000000071e-01 -1.169084189300279887e-02
2.582499999999999796e-01 -1.050959737165345180e-02
2.585000000000000075e-01 -1.037228986395836994e-02
2.587499999999999800e-01 -1.110966202673405352e-02
2.590000000000000080e-01 -1.204886368721337468e-02
2.592499999999999805e-01 -1.257303210701840590e-02
2.595000000000000084e-01 -1.274174883126425774e-02
2.597499999999999809e-01 -1.315116482001995636e-02
2.600000000000000089e-01 -1.403969042068396213e-02
2.602499999999999813e-01 -1.453387311672208783e-02
2.605000000000000093e-01 -1.305992927091094435e-02
2.607499999999999818e-01 -8.843319949520091552e-03
2.610000000000000098e-01 -2.746314879963213107e-03
2.612499999999999822e-01 3.803791246297685315e-03
2.615000000000000102e-01 1.018446130545625286e-02
2.617499999999999827e-01 1.623340143160307072e-02
2.620000000000000107e-01 2.132044678607245003e-02
2.622499999999999831e-01 2.487802005237298164e-02
2.625000000000000111e-01 2.736369162896308896e-02
2.627499999999999836e-01 2.955973573472376811e-02
2.630000000000000115e-01 3.134834811298004703e-02
2.632499999999999840e-01 3.230313395849311597e-02
2.635000000000000120e-01 3.286364583765813419e-02
2.637499999999999845e-01 3.354266112058179594e-02
2.640000000000000124e-01 3.355842582305484240e-02
2.642499999999999849e-01 3.180461854430562119e-02
2.645000000000000129e-01 2.871178934268016347e-02
2.647499999999999853e-01 2.543367898032753566e-02
2.650000000000000133e-01 2.155928166076750280e-02
2.652499999999999858e-01 1.568659787747016601e-02
2.655000000000000138e-01 8.196706387720412851e-03
2.657499999999999862e-01 1.329639924745782851e-03
2.660000000000000142e-01 -3.649552396914236205e-03
2.662499999999999867e-01 -7.500860033601067928e-03
2.665000000000000147e-01 -1.108406511276713302e-02
2.667499999999999871e-01 -1.391977684965964995e-02
2.670000000000000151e-01 -1.500197770024100721e-02
2.672499999999999876e-01 -1.410453431772124878e-02
2.675000000000000155e-01 -1.184621204150190614e-02
2.677499999999999880e-01 -8.885888805724049752e-03
2.680000000000000160e-01 -5.553907634333921615e-03
2.682499999999999885e-01 -2.238899977669884644e-03
2.685000000000000164e-01 3.475625897707249230e-04
2.687499999999999889e-01 1.629603028395244790e-03
2.690000000000000169e-01 1.752857403241641276e-03
2.692499999999999893e-01 1.387771625652643509e-03
2.695000000000000173e-01 9.648358981399346446e-04
2.697499999999999898e-01 4.357856759547125620e-04
2.700000000000000178e-01 -2.893910701143912433e-04
2.702499999999999902e-01 -1.215149578830924167e-03
2.705000000000000182e-01 -2.472532822008579202e-03
2.707499999999999907e-01 -3.904362589706187724e-03
2.710000000000000187e-01 -4.649395466015507176e-03
2.712499999999999911e-01 -4.160241746271562194e-03
2.715000000000000191e-01 -3.339013391245694313e-03
2.717499999999999916e-01 -3.536669234041767834e-03
2.720000000000000195e-01 -4.752434452386076341e-03
2.722499999999999920e-01 -5.668307276705359180e-03
2.725000000000000200e-01 -5.054058490389768885e-03
2.727499999999999925e-01 -2.833450106577117735e-03
2.730000000000000204e-01 -3.325048436418299655e-04
2.732499999999999929e-01 5.890157849308531954e-04
2.735000000000000209e-01 -8.132007799399651850e-04
2.737499999999999933e-01 -3.563678774351390112e-03
2.740000000000000213e-01 -6.197343243096651438e-03
2.742499999999999938e-01 -8.062069426826547897e-03
2.745000000000000218e-01 -9.109317305542334944e-03
2.747499999999999942e-01 -9.141432262365864828e-03
2.750000000000000222e-01 -8.101677613904362946e-03
2.752499999999999947e-01 -6.699177767513570664e-03
2.755000000000000226e-01 -5.805256389413004404e-03
2.757499999999999951e-01 -5.407958680818655828e-03
2.760000000000000231e-01 -4.915996012695908295e-03
2.762499999999999956e-01 -4.277039369259052863e-03
2.765000000000000235e-01 -4.100755149437794803e-03
2.767499999999999960e-01 -4.740244105526121923e-03
2.770000000000000240e-01 -5.680669237885896047e-03
2.772499999999999964e-01 -5.949782673135761354e-03
2.775000000000000244e-01 -5.237387897459424083e-03
2.777499999999999969e-01 -4.387571514449012736e-03
2.780000000000000249e-01 -3.720453968965773371e-03
2.782499999999999973e-01 -1.076384747162255785e-03
2.785000000000000253e-01 5.375691209873102554e-03
2.787499999999999978e-01 1.154063747567762345e-02
2.790000000000000258e-01 1.136178952941436539e-02
2.792499999999999982e-01 1.184061151998773605e-02
2.795000000000000262e-01 3.299968558727613827e-02
2.797499999999999987e-01 7.559905187097365475e-02
2.800000000000000266e-01 9.919298353520492051e-02
2.802499999999999991e-01 6.394896169194583258e-02
2.805000000000000271e-01 -8.584029383576847333e-03
2.807499999999999996e-01 -5.386614162095677144e-02
2.810000000000000275e-01 -4.372391559569571706e-02
2.812500000000000000e-01 -1.002271431364711723e-02
2.814999999999999725e-01 9.420403614161243500e-03
2.817500000000000004e-01 1.118891269696848864e-02
2.819999999999999729e-01 9.505101193267908796e-03
2.822500000000000009e-01 9.460820412626870166e-03
2.824999999999999734e-01 7.452510500457666491e-03
2.827500000000000013e-01 2.974032054513183181e-03
2.829999999999999738e-01 -6.385423401607964213e-05
2.832500000000000018e-01 7.059633973841132355e-04
2.834999999999999742e-01 4.044197762505992617e-03
2.837500000000000022e-01 7.822456189951662239e-03
2.839999999999999747e-01 1.111730124663238943e-02
2.842500000000000027e-01 1.363770939829395124e-02
2.844999999999999751e-01 1.481306676644683629e-02
2.847500000000000031e-01 1.439777778722254459e-02
2.849999999999999756e-01 1.324438963031404626e-02
2.852500000000000036e-01 1.239761677072666671e-02
2.854999999999999760e-01 1.163280202143898712e-02
2.857500000000000040e-01 9.724968378608840960e-03
2.859999999999999765e-01 6.028762422455443901e-03
2.862500000000000044e-01 1.220103708706743841e-03
2.864999999999999769e-01 -3.397564947095073427e-03
2.867500000000000049e-01 -7.226799992008703377e-03
2.869999999999999774e-01 -1.171761027605848493e-02
2.872500000000000053e-01 -2.110002303285204994e-02
2.874999999999999778e-01 -4.122924796849093687e-02
2.877500000000000058e-01 -7.517355104991933767e-02
2.879999999999999782e-01 -1.170728603399414092e-01
2.882500000000000062e-01 -1.502934875063123565e-01
2.884999999999999787e-01 -1.553521037906987479e-01
2.887500000000000067e-01 -1.244772852696348076e-01
2.889999999999999791e-01 -6.937372653583379067e-02
2.892500000000000071e-01 -1.201902692669844230e-02
2.894999999999999796e-01 3.169247453323872227e-02
2.897500000000000075e-01 5.723406325118253479e-02
2.899999999999999800e-01 6.555897755375818259e-02
2.902500000000000080e-01 5.938184851487368632e-02
2.904999999999999805e-01 4.443618921097708396e-02
2.907500000000000084e-01 2.831471857136984641e-02
2.909999999999999809e-01 1.599628649871412053e-02
2.912500000000000089e-01 8.045750516994113269e-03
2.914999999999999813e-01 2.880198521834091609e-03
2.917500000000000093e-01 -7.507154935946821605e-04
2.919999999999999818e-01 -3.100196305194386631e-03
2.922500000000000098e-01 -3.809294988682548986e-03
2.924999999999999822e-01 -2.523046080525312689e-03
2.927500000000000102e-01 5.685598782623409479e-04
2.929999999999999827e-01 4.472719631234823960e-03
2.932500000000000107e-01 7.711911673729550561e-03
2.934999999999999831e-01 9.376512742115945126e-03
2.937500000000000111e-01 1.012235770669139140e-02
2.939999999999999836e-01 1.164261595694418387e-02
2.942500000000000115e-01 1.459429141647660376e-02
2.944999999999999840e-01 1.735941221253894592e-02
2.947500000000000120e-01 1.754328535035483069e-02
2.949999999999999845e-01 1.443881308493807740e-02
2.952500000000000124e-01 9.257284023744930673e-03
2.954999999999999849e-01 3.417822811220373909e-03
2.957500000000000129e-01 -2.131371817573570002e-03
2.959999999999999853e-01 -6.076628683677845824e-03
2.962500000000000133e-01 -6.735378150162438238e-03
2.964999999999999858e-01 -3.552607407393772957e-03
2.967500000000000138e-01 2.055189559828905690e-03
2.969999999999999862e-01 7.973606890508041709e-03
2.972500000000000142e-01 1.329911929766866216e-02
2.974999999999999867e-01 1.837709811977365076e-02
2.977500000000000147e-01 2.355946071729062702e-02
2.979999999999999871e-01 3.018318333323490379e-02
2.982500000000000151e-01 4.243871024724402835e-02
2.984999999999999876e-01 6.260107271350347224e-02
2.987500000000000155e-01 8.175583828624589933e-02
2.989999999999999880e-01 8.390531286308583470e-02
2.992500000000000160e-01 6.684466299870564510e-02
2.994999999999999885e-01 5.072921860999529686e-02
2.997500000000000164e-01 6.009835425165018646e-02
2.999999999999999889e-01 1.052524276709747852e-01
3.002500000000000169e-01 1.692609865810421332e-01
3.004999999999999893e-01 1.941838508273025787e-01
3.007500000000000173e-01 1.149841513737439036e-01
3.009999999999999898e-01 -5.456975061989445541e-02
3.012500000000000178e-01 -2.077900617432774655e-01
3.014999999999999902e-01 -2.520445233850459599e-01
3.017500000000000182e-01 -1.958373254318397372e-01
3.019999999999999907e-01 -1.125022362437008289e-01
3.022500000000000187e-01 -5.631574985709202757e-02
3.024999999999999911e-01 -3.395507816956635366e-02
3.027500000000000191e-01 -3.000719602904803121e-02
3.029999999999999916e-01 -3.170570693275365920e-02
3.032500000000000195e-01 -3.204206147722615805e-02
3.034999999999999920e-01 -2.729375448096055257e-02
3.037500000000000200e-01 -1.851050500303791022e-02
3.039999999999999925e-01 -1.077511055752893021e-02
3.042500000000000204e-01 -8.053387843988192227e-03
3.044999999999999929e-01 -9.787399372976294393e-03
3.047500000000000209e-01 -1.268702321831819031e-02
3.049999999999999933e-01 -1.420411958163587084e-02
3.052500000000000213e-01 -1.361625792269072731e-02
3.054999999999999938e-01 -1.104514993238948223e-02
3.057500000000000218e-01 -6.642478801529864453e-03
3.059999999999999942e-01 -9.760861919998103974e-04
3.062500000000000222e-01 3.965262909711414485e-03
3.064999999999999947e-01 5.228421668242372485e-03
3.067500000000000226e-01 1.863183437566396554e-03
3.069999999999999951e-01 -2.959639003399402307e-03
3.072500000000000231e-01 -4.713136455112123917e-03
3.074999999999999956e-01 -2.234755313935033079e-03
3.077500000000000235e-01 2.149165739327296189e-03
3.079999999999999960e-01 6.156040749872655933e-03
3.082500000000000240e-01 8.466836709059254173e-03
3.084999999999999964e-01 7.826577794863721210e-03
3.087500000000000244e-01 5.396587743694985367e-03
3.089999999999999969e-01 5.849014779201269949e-03
3.092500000000000249e-01 9.414007365604168745e-03
3.094999999999999973e-01 4.511430712581053493e-03
3.097500000000000253e-01 -2.109308207972339713e-02
3.099999999999999978e-01 -5.936823922309576035e-02
3.102500000000000258e-01 -8.241397899063380994e-02
3.104999999999999982e-01 -6.873334145872672662e-02
3.107500000000000262e-01 -2.345486602843055782e-02
3.109999999999999987e-01 2.885491230845587188e-02
3.112500000000000266e-01 6.533132726446684579e-02
3.114999999999999991e-01 7.751804983697897777e-02
3.117500000000000271e-01 6.995804263047247784e-02
3.119999999999999996e-01 5.269998596493814108e-02
3.122500000000000275e-01 3.476374764145116758e-02
3.125000000000000000e-01 2.053963086572652141e-02
3.127499999999999725e-01 1.005104248923315881e-02
3.130000000000000004e-01 2.000048452867648693e-03
3.132499999999999729e-01 -4.187905662493941229e-03
3.135000000000000009e-01 -8.777583056065617687e-03
3.137499999999999734e-01 -1.238528073776648357e-02
3.140000000000000013e-01 -1.542646815211753258e-02
3.142499999999999738e-01 -1.741458693880130679e-02
3.145000000000000018e-01 -1.732741298441414432e-02
3.147499999999999742e-01 -1.475282585886380365e-02
3.150000000000000022e-01 -1.048415578048452271e-02
3.152499999999999747e-01 -5.718640808920321013e-03
3.155000000000000027e-01 -8.534621781713953165e-04
3.157499999999999751e-01 4.448392531928821968e-03
3.160000000000000031e-01 1.014064457151526814e-02
3.162499999999999756e-01 1.535937142963403682e-02
3.165000000000000036e-01 1.927751523444608261e-02
3.167499999999999760e-01 2.205434116585335003e-02
3.170000000000000040e-01 2.449062536965689041e-02
3.172499999999999765e-01 2.653954369603291411e-02
3.175000000000000044e-01 2.672396345570637877e-02
3.177499999999999769e-01 2.383624018438768380e-02
3.180000000000000049e-01 1.878658339741052369e-02
3.182499999999999774e-01 1.374878423928737291e-02
3.185000000000000053e-01 9.885522785930828116e-03
3.187499999999999778e-01 6.955467371895271422e-03
3.190000000000000058e-01 4.669923714495274013e-03
3.192499999999999782e-01 3.144052925745557947e-03
3.195000000000000062e-01 2.034367658782764484e-03
3.197499999999999787e-01 2.928619755526737454e-04
3.200000000000000067e-01 -2.878889230614046450e-03
3.202499999999999791e-01 -7.235207841702697568e-03
3.205000000000000071e-01 -1.162836216050280869e-02
3.207499999999999796e-01 -1.469428619948982828e-02
3.210000000000000075e-01 -1.564843155416480169e-02
3.212499999999999800e-01 -1.464613040467189001e-02
3.215000000000000080e-01 -1.220019685370485676e-02
3.217499999999999805e-01 -8.453545053158104464e-03
3.220000000000000084e-01 -3.537448003659669250e-03
3.222499999999999809e-01 1.773980416538010118e-03
3.225000000000000089e-01 6.644031116455582052e-03
3.227499999999999813e-01 1.100058075200512596e-02
3.230000000000000093e-01 1.476801626615444063e-02
3.232499999999999818e-01 1.658911351821148669e-02
3.235000000000000098e-01 1.440835944256122284e-02
3.237499999999999822e-01 7.492399855369047575e-03
3.240000000000000102e-01 -2.695023731707242923e-03
3.242499999999999827e-01 -1.373672625739575173e-02
3.245000000000000107e-01 -2.389977064846237134e-02
3.247499999999999831e-01 -3.221774636158158955e-02
3.250000000000000111e-01 -3.743187206273370510e-02
3.252499999999999836e-01 -3.801413703526224097e-02
3.255000000000000115e-01 -3.383255365281323535e-02
3.257499999999999840e-01 -2.702942884740967139e-02
3.260000000000000120e-01 -2.051823066405042417e-02
3.262499999999999845e-01 -1.604921035698026952e-02
3.265000000000000124e-01 -1.390106229811451446e-02
3.267499999999999849e-01 -1.332794230304042843e-02
3.270000000000000129e-01 -1.272299831052479263e-02
3.272499999999999853e-01 -1.042897321063511809e-02
3.275000000000000133e-01 -6.079068605836488587e-03
3.277499999999999858e-01 -3.965118597085282156e-04
3.280000000000000138e-01 6.220421232522963841e-03
3.282499999999999862e-01 1.340638002184628419e-02
3.285000000000000142e-01 1.930310319383926956e-02
3.287499999999999867e-01 2.162902479764659130e-02
3.290000000000000147e-01 2.065529872931306035e-02
3.292499999999999871e-01 1.875483737971734427e-02
3.295000000000000151e-01 1.660897806395414400e-02
3.297499999999999876e-01 1.254544405956834960e-02
3.300000000000000155e-01 6.278608970285519224e-03
3.302499999999999880e-01 6.605090613379630167e-04
3.305000000000000160e-01 -1.329492193815779441e-03
3.307499999999999885e-01 4.552808020698200842e-04
3.310000000000000164e-01 3.996927311919674930e-03
3.312499999999999889e-01 7.268839032893170855e-03
3.315000000000000169e-01 9.187400037727545127e-03
3.317499999999999893e-01 9.479313156857061690e-03
3.320000000000000173e-01 8.260465698337745091e-03
3.322499999999999898e-01 5.606675038010601811e-03
3.325000000000000178e-01 1.598480579960833261e-03
3.327499999999999902e-01 -3.155036763723833258e-03
3.330000000000000182e-01 -7.488607020060421629e-03
3.332499999999999907e-01 -1.057530217226392531e-02
3.335000000000000187e-01 -1.258634099750912880e-02
3.337499999999999911e-01 -1.390028277514313015e-02
3.340000000000000191e-01 -1.388057647873737824e-02
3.342499999999999916e-01 -1.141841547280077890e-02
3.345000000000000195e-01 -6.722825091641130429e-03
3.347499999999999920e-01 -1.469021996699629122e-03
3.350000000000000200e-01 3.050660175307928941e-03
3.352499999999999925e-01 6.996731806545778906e-03
3.355000000000000204e-01 1.090021472749502611e-02
3.357499999999999929e-01 1.418339906264669791e-02
3.360000000000000209e-01 1.546344445071272736e-02
3.362499999999999933e-01 1.446540932300934348e-02
3.365000000000000213e-01 1.295291104615108914e-02
3.367499999999999938e-01 1.296437681724056483e-02
3.370000000000000218e-01 1.447554173358962110e-02
3.372499999999999942e-01 1.566892922752674208e-02
3.375000000000000222e-01 1.527714396232449610e-02
3.377499999999999947e-01 1.386723368894387728e-02
3.380000000000000226e-01 1.280627012859998810e-02
3.382499999999999951e-01 1.249464745486320028e-02
3.385000000000000231e-01 1.201103650026333174e-02
3.387499999999999956e-01 1.043231019112529287e-02
3.390000000000000235e-01 7.949143939813116747e-03
3.392499999999999960e-01 5.429757092550665382e-03
3.395000000000000240e-01 3.436723423565446207e-03
3.397499999999999964e-01 2.131348993552288108e-03
3.400000000000000244e-01 1.751864695077618621e-03
3.402499999999999969e-01 2.594936397121406450e-03
3.405000000000000249e-01 4.578001747730509399e-03
3.407499999999999973e-01 7.104388387237032913e-03
3.410000000000000253e-01 9.238892171356233307e-03
3.412499999999999978e-01 1.001267822058394229e-02
3.415000000000000258e-01 8.982074920965015669e-03
3.417499999999999982e-01 6.609096072263707239e-03
3.420000000000000262e-01 3.821004459191981988e-03
3.422499999999999987e-01 1.111900287996528403e-03
3.425000000000000266e-01 -1.836837314235286898e-03
3.427499999999999991e-01 -5.591484972297292889e-03
3.430000000000000271e-01 -1.008894814881966702e-02
3.432499999999999996e-01 -1.458038867668533592e-02
3.435000000000000275e-01 -1.841181600585852993e-02
3.437500000000000000e-01 -2.133951879913895122e-02
3.439999999999999725e-01 -2.301920846374390373e-02
3.442500000000000004e-01 -2.288571210214092669e-02
3.444999999999999729e-01 -2.083951024241915972e-02
3.447500000000000009e-01 -1.764402740164327729e-02
3.449999999999999734e-01 -1.451459193519392607e-02
3.452500000000000013e-01 -1.253927785184467958e-02
3.454999999999999738e-01 -1.225584452360032640e-02
3.457500000000000018e-01 -1.324113201584565212e-02
3.459999999999999742e-01 -1.422957986199238460e-02
3.462500000000000022e-01 -1.435011472410807794e-02
3.464999999999999747e-01 -1.424762006603764661e-02
3.467500000000000027e-01 -1.515751396718391722e-02
3.469999999999999751e-01 -1.696886103003203070e-02
3.472500000000000031e-01 -1.835434938127187415e-02
3.474999999999999756e-01 -1.879312020463948935e-02
3.477500000000000036e-01 -1.913321404232222120e-02
3.479999999999999760e-01 -2.002084805409205109e-02
3.482500000000000040e-01 -2.106368925263310890e-02
3.484999999999999765e-01 -2.182086417922865854e-02
3.487500000000000044e-01 -2.252551630994130763e-02
3.489999999999999769e-01 -2.338650319137879768e-02
3.492500000000000049e-01 -2.387871489393290914e-02
3.494999999999999774e-01 -2.336653667508478693e-02
3.497500000000000053e-01 -2.239172029292176708e-02
3.499999999999999778e-01 -2.260076808510742830e-02
3.502500000000000058e-01 -2.460240237804500740e-02
3.504999999999999782e-01 -2.641754797146358968e-02
3.507500000000000062e-01 -2.528035661106316917e-02
3.509999999999999787e-01 -2.066207179710437963e-02
3.512500000000000067e-01 -1.434849667499617232e-02
3.514999999999999791e-01 -8.042668952969515145e-03
3.517500000000000071e-01 -2.241107673908955111e-03
3.519999999999999796e-01 2.919057586657715971e-03
3.522500000000000075e-01 7.242083506946185405e-03
3.524999999999999800e-01 1.112817431197991348e-02
3.527500000000000080e-01 1.558342279906205045e-02
3.529999999999999805e-01 2.111042565091155593e-02
3.532500000000000084e-01 2.704151416707869376e-02
3.534999999999999809e-01 3.241058693950416708e-02
3.537500000000000089e-01 3.754487388078286969e-02
3.539999999999999813e-01 4.409283023769719478e-02
3.542500000000000093e-01 5.246656548983065493e-02
3.544999999999999818e-01 6.068121208629222857e-02
3.547500000000000098e-01 6.956892387436180991e-02
3.549999999999999822e-01 8.791810276362002630e-02
3.552500000000000102e-01 1.224797856178506811e-01
3.554999999999999827e-01 1.579827419504336583e-01
3.557500000000000107e-01 1.594660616718501234e-01
3.559999999999999831e-01 1.074573269235435252e-01
3.562500000000000111e-01 2.445184677219059549e-02
3.564999999999999836e-01 -4.473664624932340017e-02
3.567500000000000115e-01 -7.325056884613993791e-02
3.569999999999999840e-01 -6.368978602335735595e-02
3.572500000000000120e-01 -2.990572698960843392e-02
3.574999999999999845e-01 1.565668317143723010e-02
3.577500000000000124e-01 5.953595129867235436e-02
3.579999999999999849e-01 8.754815996642963116e-02
3.582500000000000129e-01 9.268794599571560100e-02
3.584999999999999853e-01 7.915808566571509719e-02
3.587500000000000133e-01 5.685882026874881229e-02
3.589999999999999858e-01 3.247354952914943693e-02
3.592500000000000138e-01 5.377978480091311596e-03
3.594999999999999862e-01 -2.966042765683025301e-02
3.597500000000000142e-01 -7.607822324896669486e-02
3.599999999999999867e-01 -1.293148490718001031e-01
3.602500000000000147e-01 -1.745816508808863687e-01
3.604999999999999871e-01 -1.920157669821750679e-01
3.607500000000000151e-01 -1.697471184326234950e-01
3.609999999999999876e-01 -1.162621992222094142e-01
3.612500000000000155e-01 -5.696289153918419890e-02
3.614999999999999880e-01 -1.285644556907289404e-02
3.617500000000000160e-01 1.828368071909351050e-02
3.619999999999999885e-01 5.372510701183751125e-02
3.622500000000000164e-01 9.214871396761009636e-02
3.624999999999999889e-01 9.783546847632085264e-02
3.627500000000000169e-01 4.109575678083111222e-02
3.629999999999999893e-01 -4.961194531061524637e-02
3.632500000000000173e-01 -1.082473595079920803e-01
3.634999999999999898e-01 -1.056465493308226256e-01
3.637500000000000178e-01 -7.207642756686945262e-02
3.639999999999999902e-01 -4.650361222750303697e-02
3.642500000000000182e-01 -3.604918376483482595e-02
3.644999999999999907e-01 -2.876057765507250563e-02
3.647500000000000187e-01 -1.928948345472800488e-02
3.649999999999999911e-01 -1.126082649377218615e-02
3.652500000000000191e-01 -6.893710984984507961e-03
3.654999999999999916e-01 -3.703662458524365104e-03
3.657500000000000195e-01 1.313726169432119896e-03
3.659999999999999920e-01 8.539852224379317763e-03
3.662500000000000200e-01 1.644571280125342594e-02
3.664999999999999925e-01 2.370943091035732433e-02
3.667500000000000204e-01 3.017820898256674475e-02
3.669999999999999929e-01 3.591630977372096273e-02
3.672500000000000209e-01 3.977796697703248757e-02
3.674999999999999933e-01 3.993930153595395827e-02
3.677500000000000213e-01 3.626456233492297149e-02
3.679999999999999938e-01 3.104976437824412405e-02
3.682500000000000218e-01 2.651864065714045968e-02
3.684999999999999942e-01 2.251143723288108467e-02
3.687500000000000222e-01 1.767261385954217376e-02
3.689999999999999947e-01 1.198783897683721941e-02
3.692500000000000226e-01 6.753755022439850500e-03
3.694999999999999951e-01 2.539983990530649688e-03
3.697500000000000231e-01 -1.235334858693240036e-03
3.699999999999999956e-01 -4.542803990787815278e-03
3.702500000000000235e-01 -6.029013958733467349e-03
3.704999999999999960e-01 -4.824091975153226367e-03
3.707500000000000240e-01 -2.039988077108576860e-03
3.709999999999999964e-01 3.746599801900737524e-04
3.712500000000000244e-01 1.570086385917955846e-03
3.714999999999999969e-01 1.947287000283439090e-03
3.717500000000000249e-01 2.062400957403872585e-03
3.719999999999999973e-01 2.090797101728480815e-03
3.722500000000000253e-01 2.009508156608065185e-03
3.724999999999999978e-01 1.738205412848219632e-03
3.727500000000000258e-01 1.204691759106906596e-03
3.729999999999999982e-01 5.898985621389116413e-04
3.732500000000000262e-01 5.067184065655721929e-04
3.734999999999999987e-01 1.732271863003084647e-03
3.737500000000000266e-01 4.500111257044218591e-03
3.739999999999999991e-01 7.814340032311579975e-03
3.742500000000000271e-01 9.269364991738497303e-03
3.744999999999999996e-01 5.384069079128662831e-03
3.747500000000000275e-01 -7.484800582604915486e-03
3.750000000000000000e-01 -3.072594954999260941e-02
3.752499999999999725e-01 -5.936034778641122167e-02
3.755000000000000004e-01 -8.043031029471449378e-02
3.757499999999999729e-01 -7.980526766049220178e-02
3.760000000000000009e-01 -5.411197528579107796e-02
3.762499999999999734e-01 -1.546561439115048259e-02
3.765000000000000013e-01 1.677159547154054992e-02
3.767499999999999738e-01 3.029559314570002757e-02
3.770000000000000018e-01 2.800468998318879701e-02
3.772499999999999742e-01 2.209937842707315747e-02
3.775000000000000022e-01 2.119371162235462666e-02
3.777499999999999747e-01 2.624317120751248553e-02
3.780000000000000027e-01 3.580922655880772187e-02
3.782499999999999751e-01 4.717198882454382014e-02
3.785000000000000031e-01 5.423743151859573841e-02
3.787499999999999756e-01 5.540941203512024515e-02
3.790000000000000036e-01 6.196635131218905523e-02
3.792499999999999760e-01 8.418470438161874958e-02
3.795000000000000040e-01 1.121813354566251336e-01
3.797499999999999765e-01 1.265279121127771411e-01
3.800000000000000044e-01 1.168500784885598553e-01
3.802499999999999769e-01 7.463386402646207674e-02
3.805000000000000049e-01 -6.182966302257172225e-03
3.807499999999999774e-01 -1.021113972276018605e-01
3.810000000000000053e-01 -1.632098601696058693e-01
3.812499999999999778e-01 -1.616633604002138958e-01
3.815000000000000058e-01 -1.177046334365754593e-01
3.817499999999999782e-01 -7.084068851123748178e-02
3.820000000000000062e-01 -4.245395807323985166e-02
3.822499999999999787e-01 -3.048789786291657838e-02
3.825000000000000067e-01 -2.551375340501767577e-02
3.827499999999999791e-01 -2.190062897651389937e-02
3.830000000000000071e-01 -1.778478328704955966e-02
3.832499999999999796e-01 -1.204938534810880667e-02
3.835000000000000075e-01 -4.002471842107037381e-03
3.837499999999999800e-01 5.267334162535683081e-03
3.840000000000000080e-01 1.309398063215941321e-02
3.842499999999999805e-01 1.775546940439694243e-02
3.845000000000000084e-01 2.041657555328771356e-02
3.847499999999999809e-01 2.348100510178071851e-02
3.850000000000000089e-01 2.715319384737949204e-02
3.852499999999999813e-01 2.914816140219606000e-02
3.855000000000000093e-01 2.795388911767023379e-02
3.857499999999999818e-01 2.473106566355115499e-02
3.860000000000000098e-01 2.165201374210587795e-02
3.862499999999999822e-01 1.983275299280650231e-02
3.865000000000000102e-01 1.917443854702536102e-02
3.867499999999999827e-01 1.874323821766766054e-02
3.870000000000000107e-01 1.675862263553644718e-02
3.872499999999999831e-01 1.145583954574711655e-02
3.875000000000000111e-01 2.804241108359382950e-03
3.877499999999999836e-01 -7.015090189390852694e-03
3.880000000000000115e-01 -1.507528749849415366e-02
3.882499999999999840e-01 -1.963962811740477266e-02
3.885000000000000120e-01 -2.104332074672417632e-02
3.887499999999999845e-01 -2.088564293566293195e-02
3.890000000000000124e-01 -2.034964952590844617e-02
3.892499999999999849e-01 -1.950133173936858741e-02
3.895000000000000129e-01 -1.793560043859662029e-02
3.897499999999999853e-01 -1.543394323061814122e-02
3.900000000000000133e-01 -1.213117694028109303e-02
3.902499999999999858e-01 -8.560251677989688321e-03
3.905000000000000138e-01 -5.377463570622157893e-03
3.907499999999999862e-01 -2.813175194479230253e-03
3.910000000000000142e-01 -6.035158510921721049e-04
3.912499999999999867e-01 1.614009416043049421e-03
3.915000000000000147e-01 4.089422009440842748e-03
3.917499999999999871e-01 6.719433220450598231e-03
3.920000000000000151e-01 8.740806408612921546e-03
3.922499999999999876e-01 9.474553563924568642e-03
3.925000000000000155e-01 9.589465810394612669e-03
3.927499999999999880e-01 1.038447335847290411e-02
3.930000000000000160e-01 1.172341766272714213e-02
3.932499999999999885e-01 1.225586949479234161e-02
3.935000000000000164e-01 1.170246900125987075e-02
3.937499999999999889e-01 1.129764121846951741e-02
3.940000000000000169e-01 1.183004600469230415e-02
3.942499999999999893e-01 1.242319256217730428e-02
3.945000000000000173e-01 1.153962499878683975e-02
3.947499999999999898e-01 8.684613590232932723e-03
3.950000000000000178e-01 4.700797711857397296e-03
3.952499999999999902e-01 3.923206320693949090e-04
3.955000000000000182e-01 -4.266307187908041122e-03
3.957499999999999907e-01 -8.897420606324892706e-03
3.960000000000000187e-01 -1.194163687275995311e-02
3.962499999999999911e-01 -1.260169663051143030e-02
3.965000000000000191e-01 -1.254361431360738639e-02
3.967499999999999916e-01 -1.385022243937462233e-02
3.970000000000000195e-01 -1.604269445162281177e-02
3.972499999999999920e-01 -1.688227594291863073e-02
3.975000000000000200e-01 -1.548512177215161795e-02
3.977499999999999925e-01 -1.314099122615952457e-02
3.980000000000000204e-01 -1.158214063491358123e-02
3.982499999999999929e-01 -1.154402651665852562e-02
3.985000000000000209e-01 -1.261658855380861678e-02
3.987499999999999933e-01 -1.379872378046315302e-02
3.990000000000000213e-01 -1.443834806306626937e-02
3.992499999999999938e-01 -1.496351179615538346e-02
3.995000000000000218e-01 -1.641395109300834709e-02
3.997499999999999942e-01 -1.898610364140022877e-02
4.000000000000000222e-01 -2.137045711932522921e-02
4.002499999999999947e-01 -2.189728979391523250e-02
4.005000000000000226e-01 -2.005585249349495225e-02
4.007499999999999951e-01 -1.652418207018336443e-02
4.010000000000000231e-01 -1.208601145733801015e-02
4.012499999999999956e-01 -7.097565164571519730e-03
4.015000000000000235e-01 -1.844815058526676210e-03
4.017499999999999960e-01 3.289458165933287388e-03
4.020000000000000240e-01 8.375866659245393558e-03
4.022499999999999964e-01 1.429349949035621341e-02
4.025000000000000244e-01 2.181756728698878642e-02
4.027499999999999969e-01 2.994865981703461605e-02
4.030000000000000249e-01 3.561942123321208686e-02
4.032499999999999973e-01 3.608122586927778319e-02
4.035000000000000253e-01 3.178750170386730745e-02
4.037499999999999978e-01 2.609741524474730456e-02
4.040000000000000258e-01 2.197810498784326383e-02
4.042499999999999982e-01 1.973476365904914057e-02
4.045000000000000262e-01 1.782681687262524517e-02
4.047499999999999987e-01 1.489435804298376576e-02
4.050000000000000266e-01 1.092287680984396769e-02
4.052499999999999991e-01 7.259552642205726811e-03
4.055000000000000271e-01 5.573262106120046612e-03
4.057499999999999996e-01 6.191502781434657203e-03
4.060000000000000275e-01 7.531586473421236945e-03
4.062500000000000000e-01 7.602485486053352053e-03
4.064999999999999725e-01 5.831210713613827618e-03
4.067500000000000004e-01 3.291553658434709546e-03
4.069999999999999729e-01 1.662968850548386841e-03
4.072500000000000009e-01 1.895870776337432295e-03
4.074999999999999734e-01 3.277684655413315960e-03
4.077500000000000013e-01 3.976507877843205030e-03
4.079999999999999738e-01 2.968250160268843738e-03
4.082500000000000018e-01 1.136349222256845997e-03
4.084999999999999742e-01 4.092729486955356166e-05
4.087500000000000022e-01 -1.516994627779108128e-04
4.089999999999999747e-01 -8.236101673012765755e-04
4.092500000000000027e-01 -2.763948463202625140e-03
4.094999999999999751e-01 -4.775439205076291264e-03
4.097500000000000031e-01 -5.302296599633439869e-03
4.099999999999999756e-01 -4.589225279166803118e-03
4.102500000000000036e-01 -3.994241904075508838e-03
4.104999999999999760e-01 -3.986001196800460777e-03
4.107500000000000040e-01 -4.125019864247013966e-03
4.109999999999999765e-01 -4.270810413434010869e-03
4.112500000000000044e-01 -4.648448660343031461e-03
4.114999999999999769e-01 -5.256352352727310627e-03
4.117500000000000049e-01 -5.991583642690374856e-03
4.119999999999999774e-01 -6.990059531643834714e-03
4.122500000000000053e-01 -8.359810168736020453e-03
4.124999999999999778e-01 -9.810510084729504379e-03
4.127500000000000058e-01 -1.086308704127960344e-02
4.129999999999999782e-01 -1.135750253240453041e-02
4.132500000000000062e-01 -1.163329856499326249e-02
4.134999999999999787e-01 -1.219819067818573959e-02
4.137500000000000067e-01 -1.309286261729577724e-02
4.139999999999999791e-01 -1.351267756222254875e-02
4.142500000000000071e-01 -1.235473255828054354e-02
4.144999999999999796e-01 -9.440712370037657175e-03
4.147500000000000075e-01 -6.103628305160193820e-03
4.149999999999999800e-01 -4.245232869475096781e-03
4.152500000000000080e-01 -4.511286731402545068e-03
4.154999999999999805e-01 -5.499768276635679139e-03
4.157500000000000084e-01 -5.286092657587414256e-03
4.159999999999999809e-01 -3.580641110565861446e-03
4.162500000000000089e-01 -1.585846299684425626e-03
4.164999999999999813e-01 -3.112825699776600868e-05
4.167500000000000093e-01 1.462567460279874231e-03
4.169999999999999818e-01 3.209265394143140208e-03
4.172500000000000098e-01 4.901235271201337743e-03
4.174999999999999822e-01 6.360821448914540099e-03
4.177500000000000102e-01 7.891788747096386766e-03
4.179999999999999827e-01 9.677398755344207570e-03
4.182500000000000107e-01 1.146437653765847164e-02
4.184999999999999831e-01 1.287833188241805510e-02
4.187500000000000111e-01 1.348618673049363503e-02
4.189999999999999836e-01 1.271594897811331552e-02
4.192500000000000115e-01 1.057512240670698683e-02
4.194999999999999840e-01 8.379195541004502354e-03
4.197500000000000120e-01 7.638688056759109814e-03
4.199999999999999845e-01 8.113220860123768197e-03
4.202500000000000124e-01 8.125391661383967595e-03
4.204999999999999849e-01 6.801953471189884325e-03
4.207500000000000129e-01 4.878566810901359060e-03
4.209999999999999853e-01 3.530375229630745935e-03
4.212500000000000133e-01 3.492181279053527699e-03
4.214999999999999858e-01 5.032553677681243960e-03
4.217500000000000138e-01 7.840395848973048115e-03
4.219999999999999862e-01 1.096110482516646396e-02
4.222500000000000142e-01 1.327896593406858311e-02
4.224999999999999867e-01 1.404501882392266213e-02
4.227500000000000147e-01 1.293244891798701023e-02
4.229999999999999871e-01 9.986038504219869882e-03
4.232500000000000151e-01 5.879336966273905271e-03
4.234999999999999876e-01 1.967425962717638324e-03
4.237500000000000155e-01 -6.729789328738514835e-04
4.239999999999999880e-01 -2.458731119223228970e-03
4.242500000000000160e-01 -4.748691731373554797e-03
4.244999999999999885e-01 -7.694159754211142219e-03
4.247500000000000164e-01 -9.502562575992095154e-03
4.249999999999999889e-01 -8.446002636734355543e-03
4.252500000000000169e-01 -5.001738201165202916e-03
4.254999999999999893e-01 -1.339669493279430903e-03
4.257500000000000173e-01 1.072747421007963714e-03
4.259999999999999898e-01 2.634977776225760470e-03
4.262500000000000178e-01 4.176669985779173609e-03
4.264999999999999902e-01 5.058107307850688572e-03
4.267500000000000182e-01 3.369497003225340945e-03
4.269999999999999907e-01 -2.136291620396574623e-03
4.272500000000000187e-01 -1.043759852023977246e-02
4.274999999999999911e-01 -1.847492922738094498e-02
4.277500000000000191e-01 -2.359041966595554207e-02
4.279999999999999916e-01 -2.588638412908219472e-02
4.282500000000000195e-01 -2.703421758014603465e-02
4.284999999999999920e-01 -2.707167946707677089e-02
4.287500000000000200e-01 -2.467005590799790232e-02
4.289999999999999925e-01 -2.067060185154504653e-02
4.292500000000000204e-01 -1.834939450639947942e-02
4.294999999999999929e-01 -1.856339315694731026e-02
4.297500000000000209e-01 -1.699225913771354110e-02
4.299999999999999933e-01 -1.025285160862838760e-02
4.302500000000000213e-01 -5.971731848977519450e-03
4.304999999999999938e-01 -2.098012213039326945e-02
4.307500000000000218e-01 -6.075646310786682325e-02
4.309999999999999942e-01 -1.029379383904986955e-01
4.312500000000000222e-01 -1.140004509341245309e-01
4.314999999999999947e-01 -8.367520567654682107e-02
4.317500000000000226e-01 -3.187438124294583036e-02
4.319999999999999951e-01 1.667842726373942874e-02
4.322500000000000231e-01 5.179334934476396979e-02
4.324999999999999956e-01 7.332804969260212080e-02
4.327500000000000235e-01 8.149135960850635574e-02
4.329999999999999960e-01 7.698952574938802695e-02
4.332500000000000240e-01 6.445109647426368327e-02
4.334999999999999964e-01 5.031103949924477930e-02
4.337500000000000244e-01 3.819756941107499415e-02
4.339999999999999969e-01 2.828695689295330010e-02
4.342500000000000249e-01 2.026461690076477098e-02
4.344999999999999973e-01 1.508188743859128871e-02
4.347500000000000253e-01 1.359196480725967555e-02
4.349999999999999978e-01 1.484597195424868649e-02
4.352500000000000258e-01 1.678353896878383503e-02
4.354999999999999982e-01 1.814149487914758219e-02
4.357500000000000262e-01 1.897126603667865022e-02
4.359999999999999987e-01 1.955967478635754070e-02
4.362500000000000266e-01 1.939126423383177172e-02
4.364999999999999991e-01 1.735246909459553163e-02
4.367500000000000271e-01 1.299413940922109628e-02
4.369999999999999996e-01 7.317992934120136871e-03
4.372500000000000275e-01 1.986210588717614127e-03
4.375000000000000000e-01 -1.874856424893915890e-03
4.377499999999999725e-01 -3.745709323762077322e-03
4.380000000000000004e-01 -3.343226215114107440e-03
4.382499999999999729e-01 -9.336172446373169984e-04
4.385000000000000009e-01 2.483878951209908276e-03
4.387499999999999734e-01 6.001769206881378896e-03
4.390000000000000013e-01 9.394368853267510630e-03
4.392499999999999738e-01 1.226168478571846958e-02
4.395000000000000018e-01 1.316903625655954473e-02
4.397499999999999742e-01 1.068832550192085930e-02
4.400000000000000022e-01 5.213852747147115600e-03
4.402499999999999747e-01 -1.026299050392404924e-03
4.405000000000000027e-01 -5.851598025369940045e-03
4.407499999999999751e-01 -8.752663537195049664e-03
4.410000000000000031e-01 -1.071013016451252860e-02
4.412499999999999756e-01 -1.251416578713210846e-02
4.415000000000000036e-01 -1.362541096880355920e-02
4.417499999999999760e-01 -1.322469687149970159e-02
4.420000000000000040e-01 -1.183854697519318676e-02
4.422499999999999765e-01 -1.080380859823350595e-02
4.425000000000000044e-01 -1.040265709452782399e-02
4.427499999999999769e-01 -9.605985651609791343e-03
4.430000000000000049e-01 -7.649321140956909064e-03
4.432499999999999774e-01 -5.224796670689849445e-03
4.435000000000000053e-01 -3.945898868675313739e-03
4.437499999999999778e-01 -4.697599481425734566e-03
4.440000000000000058e-01 -6.650741183734230032e-03
4.442499999999999782e-01 -7.973131146689554222e-03
4.445000000000000062e-01 -7.225603124651629010e-03
4.447499999999999787e-01 -4.162414146422399944e-03
4.450000000000000067e-01 1.264181473456653946e-04
4.452499999999999791e-01 3.735115370873167469e-03
4.455000000000000071e-01 5.197535010409000573e-03
4.457499999999999796e-01 4.624316577533170436e-03
4.460000000000000075e-01 3.528986735020406967e-03
4.462499999999999800e-01 3.249995726846048073e-03
4.465000000000000080e-01 3.712715712174240266e-03
4.467499999999999805e-01 4.294459469582427233e-03
4.470000000000000084e-01 5.425651653151369012e-03
4.472499999999999809e-01 8.068740709860805146e-03
4.475000000000000089e-01 1.176049746884914524e-02
4.477499999999999813e-01 1.461364462766968908e-02
4.480000000000000093e-01 1.552202819644319873e-02
4.482499999999999818e-01 1.489453067676338970e-02
4.485000000000000098e-01 1.191773713284926574e-02
4.487499999999999822e-01 1.562171171679456461e-03
4.490000000000000102e-01 -2.306650842739325566e-02
4.492499999999999827e-01 -6.195870039417422648e-02
4.495000000000000107e-01 -1.016684408079208957e-01
4.497499999999999831e-01 -1.217751328453790804e-01
4.500000000000000111e-01 -1.103596643156038587e-01
4.502499999999999836e-01 -7.192244213900329808e-02
4.505000000000000115e-01 -2.105909672473956981e-02
4.507499999999999840e-01 2.813407591282631598e-02
4.510000000000000120e-01 6.631973907607356666e-02
4.512499999999999845e-01 8.757038626319497976e-02
4.515000000000000124e-01 8.941268521342887743e-02
4.517499999999999849e-01 7.551127285448078208e-02
4.520000000000000129e-01 5.506433294689646457e-02
4.522499999999999853e-01 3.683270107265928378e-02
4.525000000000000133e-01 2.414007770981475148e-02
4.527499999999999858e-01 1.590026210496205475e-02
4.530000000000000138e-01 1.044863086881496830e-02
4.532499999999999862e-01 7.082167190721517028e-03
4.535000000000000142e-01 5.246338770316781412e-03
4.537499999999999867e-01 3.905808208967732204e-03
4.540000000000000147e-01 1.963851550148516117e-03
4.542499999999999871e-01 -1.053557835890868996e-03
4.545000000000000151e-01 -4.757042139975953092e-03
4.547499999999999876e-01 -8.133919316959784679e-03
4.550000000000000155e-01 -1.011812501127584175e-02
4.552499999999999880e-01 -1.029435604226638067e-02
4.555000000000000160e-01 -9.170816375456860084e-03
4.557499999999999885e-01 -7.659102217073685513e-03
4.560000000000000164e-01 -6.374163197487332441e-03
4.562499999999999889e-01 -5.541440990991608126e-03
4.565000000000000169e-01 -5.361758030144675273e-03
4.567499999999999893e-01 -6.142225431174753308e-03
4.570000000000000173e-01 -7.939754281087951782e-03
4.572499999999999898e-01 -1.012863938221580939e-02
4.575000000000000178e-01 -1.159412054789533963e-02
4.577499999999999902e-01 -1.188340656601242010e-02
4.580000000000000182e-01 -1.221711765365994691e-02
4.582499999999999907e-01 -1.427730521887533681e-02
4.585000000000000187e-01 -1.723432520477996902e-02
4.587499999999999911e-01 -1.744660945370071423e-02
4.590000000000000191e-01 -1.344303631296193784e-02
4.592499999999999916e-01 -1.039805111298991794e-02
4.595000000000000195e-01 -1.416783600218160175e-02
4.597499999999999920e-01 -1.752780931588887939e-02
4.600000000000000200e-01 -1.919545406788148887e-03
4.602499999999999925e-01 3.258190254303715283e-02
4.605000000000000204e-01 4.807355823470139955e-02
4.607499999999999929e-01 7.996558009335177561e-03
4.610000000000000209e-01 -6.641918351439903001e-02
4.612499999999999933e-01 -1.130651076746883449e-01
4.615000000000000213e-01 -1.035899767136848060e-01
4.617499999999999938e-01 -6.718253649031263874e-02
4.620000000000000218e-01 -4.091009608677960430e-02
4.622499999999999942e-01 -3.097374488260456332e-02
4.625000000000000222e-01 -2.628497891435928324e-02
4.627499999999999947e-01 -2.170099129265190899e-02
4.630000000000000226e-01 -1.769332667435713491e-02
4.632499999999999951e-01 -1.223983993971916595e-02
4.635000000000000231e-01 -2.944111507088203582e-03
4.637499999999999956e-01 8.274581364440753220e-03
4.640000000000000235e-01 1.826860088939425558e-02
4.642499999999999960e-01 2.727593850484751059e-02
4.645000000000000240e-01 3.557146020491626370e-02
4.647499999999999964e-01 3.790440165064951072e-02
4.650000000000000244e-01 2.997492031262680157e-02
4.652499999999999969e-01 2.401278749338577045e-02
4.655000000000000249e-01 4.575705608487220383e-02
4.657499999999999973e-01 9.914739899172224369e-02
4.660000000000000253e-01 1.416008671477326508e-01
4.662499999999999978e-01 1.218606794071306898e-01
4.665000000000000258e-01 4.319881558340032263e-02
4.667499999999999982e-01 -3.770945440284516337e-02
4.670000000000000262e-01 -7.326127908376636744e-02
4.672499999999999987e-01 -5.955402578563668420e-02
4.675000000000000266e-01 -1.458824301711845323e-02
4.677499999999999991e-01 4.596544272494255262e-02
4.680000000000000271e-01 1.060258679906397883e-01
4.682499999999999996e-01 1.454039673536153265e-01
4.685000000000000275e-01 1.523817772246358615e-01
4.687500000000000000e-01 1.334349293836609718e-01
4.689999999999999725e-01 1.036872828635496124e-01
4.692500000000000004e-01 7.167586383346283285e-02
4.694999999999999729e-01 3.958738923527485576e-02
4.697500000000000009e-01 1.521621100438007995e-02
4.699999999999999734e-01 1.031794802285864246e-02
4.702500000000000013e-01 1.911726961618798182e-02
4.704999999999999738e-01 1.335885584209579001e-02
4.707500000000000018e-01 -1.913335062593825991e-02
4.709999999999999742e-01 -4.300398203641539463e-02
4.712500000000000022e-01 -1.633745765684334675e-02
4.714999999999999747e-01 4.625254014771509881e-02
4.717500000000000027e-01 8.807080233288623605e-02
4.719999999999999751e-01 7.262264001277911329e-02
4.722500000000000031e-01 5.277035318232191699e-04
4.724999999999999756e-01 -1.053265279705780794e-01
4.727500000000000036e-01 -2.010981995791829291e-01
4.729999999999999760e-01 -2.387502182881404977e-01
4.732500000000000040e-01 -2.069212987085223276e-01
4.734999999999999765e-01 -1.408802389972505786e-01
4.737500000000000044e-01 -8.473473778970516679e-02
4.739999999999999769e-01 -5.523821512149889451e-02
4.742500000000000049e-01 -4.342145651381365545e-02
4.744999999999999774e-01 -3.678456256030574606e-02
4.747500000000000053e-01 -3.081417268641143542e-02
4.749999999999999778e-01 -2.551538856446579698e-02
4.752500000000000058e-01 -2.058897948123955546e-02
4.754999999999999782e-01 -1.553865499136996946e-02
4.757500000000000062e-01 -1.086679621853123279e-02
4.759999999999999787e-01 -7.376926653298563480e-03
4.762500000000000067e-01 -5.252137913072865184e-03
4.764999999999999791e-01 -4.349119563391749300e-03
4.767500000000000071e-01 -4.423026744962414714e-03
4.769999999999999796e-01 -4.689101181176499357e-03
4.772500000000000075e-01 -4.159970107885912691e-03
4.774999999999999800e-01 -2.736938382219947490e-03
4.777500000000000080e-01 -1.164966645879097302e-03
4.779999999999999805e-01 5.481555756388093912e-05
4.782500000000000084e-01 9.835413013963901531e-04
4.784999999999999809e-01 1.860000194195940470e-03
4.787500000000000089e-01 3.095900020326186001e-03
4.789999999999999813e-01 5.057529326533400857e-03
4.792500000000000093e-01 7.123480077882282831e-03
4.794999999999999818e-01 7.721501457881706047e-03
4.797500000000000098e-01 6.279714062229477256e-03
4.799999999999999822e-01 4.430982633047925688e-03
4.802500000000000102e-01 4.127052648780167587e-03
4.804999999999999827e-01 5.274529489845407315e-03
4.807500000000000107e-01 6.591776497270542164e-03
4.809999999999999831e-01 8.048841950942941734e-03
4.812500000000000111e-01 1.076598124884355946e-02
4.814999999999999836e-01 1.487586485684598732e-02
4.817500000000000115e-01 1.902786834181278627e-02
4.819999999999999840e-01 2.198378506836403193e-02
4.822500000000000120e-01 2.371657403708633122e-02
4.824999999999999845e-01 2.493199984823478432e-02
4.827500000000000124e-01 2.611860889547300627e-02
4.829999999999999849e-01 2.723939607314773345e-02
4.832500000000000129e-01 2.820185257442120452e-02
4.834999999999999853e-01 2.935322865169320491e-02
4.837500000000000133e-01 3.111948944423630070e-02
4.839999999999999858e-01 3.312767411942751927e-02
4.842500000000000138e-01 3.425156737606132457e-02
4.844999999999999862e-01 3.393150988330357470e-02
4.847500000000000142e-01 3.307219075120453738e-02
4.849999999999999867e-01 3.302361252615284432e-02
4.852500000000000147e-01 3.367333733004625879e-02
4.854999999999999871e-01 3.303983109664181822e-02
4.857500000000000151e-01 2.887070707059617367e-02
4.859999999999999876e-01 2.035801698071657700e-02
4.862500000000000155e-01 8.623132753313594162e-03
4.864999999999999880e-01 -3.836169290332780771e-03
4.867500000000000160e-01 -1.454154250291534757e-02
4.869999999999999885e-01 -2.242914301568006002e-02
4.872500000000000164e-01 -2.761681544499423185e-02
4.874999999999999889e-01 -3.015958516469304657e-02
4.877500000000000169e-01 -3.001798585513905729e-02
4.879999999999999893e-01 -2.791998480988360995e-02
4.882500000000000173e-01 -2.517497169326018275e-02
4.884999999999999898e-01 -2.261460160059015553e-02
4.887500000000000178e-01 -2.017946290682078730e-02
4.889999999999999902e-01 -1.747365405894071855e-02
4.892500000000000182e-01 -1.451335351987801010e-02
4.894999999999999907e-01 -1.184531576783653603e-02
4.897500000000000187e-01 -9.840113999814997445e-03
4.899999999999999911e-01 -8.046932245112306883e-03
4.902500000000000191e-01 -5.659976655139354815e-03
4.904999999999999916e-01 -2.646696002632687502e-03
4.907500000000000195e-01 2.898790192461096369e-05
4.909999999999999920e-01 1.493613331079026579e-03
4.912500000000000200e-01 1.963469115939070649e-03
4.914999999999999925e-01 2.396748537795511010e-03
4.917500000000000204e-01 3.271912727560962950e-03
4.919999999999999929e-01 4.016385468400594273e-03
4.922500000000000209e-01 3.672501602846678283e-03
4.924999999999999933e-01 1.752203862483844247e-03
4.927500000000000213e-01 -1.640998675942852321e-03
4.929999999999999938e-01 -5.962671764065464661e-03
4.932500000000000218e-01 -1.013115869740011457e-02
4.934999999999999942e-01 -1.262267064119586453e-02
4.937500000000000222e-01 -1.223234254155463122e-02
4.939999999999999947e-01 -9.153704398190109712e-03
4.942500000000000226e-01 -5.323725790690360914e-03
4.944999999999999951e-01 -3.073929783414823015e-03
4.947500000000000231e-01 -2.796355648688316538e-03
4.949999999999999956e-01 -2.474559368683371900e-03
4.952500000000000235e-01 -4.648889494993031822e-04
4.954999999999999960e-01 2.064386419158601143e-03
4.957500000000000240e-01 2.855471212386588402e-03
4.959999999999999964e-01 1.681297235273892816e-03
4.962500000000000244e-01 -4.542433325158110632e-05
4.964999999999999969e-01 -1.758910416079171365e-03
4.967500000000000249e-01 -3.771040900503625469e-03
4.969999999999999973e-01 -5.416589459283530777e-03
4.972500000000000253e-01 -5.216930645746361596e-03
4.974999999999999978e-01 -2.952900711945957105e-03
4.977500000000000258e-01 5.750861600318358082e-05
4.979999999999999982e-01 3.238795397816642951e-03
4.982500000000000262e-01 8.131859183459211327e-03
4.984999999999999987e-01 1.639538649735065856e-02
4.987500000000000266e-01 2.640160372163893529e-02
4.989999999999999991e-01 3.301956653758771759e-02
4.992500000000000271e-01 3.277332219216414627e-02
4.994999999999999996e-01 2.925458894474138732e-02
4.997500000000000275e-01 2.992974845536965772e-02
5.000000000000000000e-01 3.573163857102298890e-02
5.002499999999999725e-01 3.827862253699179651e-02
5.004999999999999449e-01 3.096439893361322901e-02
5.007500000000000284e-01 1.781531498217723761e-02
5.010000000000000009e-01 6.874955536945988842e-03
5.012499999999999734e-01 2.006813399898891865e-05
5.014999999999999458e-01 -5.673116295671419389e-03
5.017500000000000293e-01 -1.076318273469957856e-02
5.020000000000000018e-01 -1.287053814007083942e-02
5.022499999999999742e-01 -1.150968738979960514e-02
5.024999999999999467e-01 -9.588256949039244623e-03
5.027500000000000302e-01 -9.998704426119260288e-03
5.030000000000000027e-01 -1.278248971896928272e-02
5.032499999999999751e-01 -1.602114980223820484e-02
5.034999999999999476e-01 -1.835513158382042626e-02
5.037500000000000311e-01 -1.989140087522934391e-02
5.040000000000000036e-01 -2.086417092713822169e-02
5.042499999999999760e-01 -2.049416359115392716e-02
5.044999999999999485e-01 -1.809795674781555438e-02
5.047500000000000320e-01 -1.458345385245032010e-02
5.050000000000000044e-01 -1.159050168292515698e-02
5.052499999999999769e-01 -9.597342873347729231e-03
5.054999999999999494e-01 -7.894564920455975077e-03
5.057500000000000329e-01 -6.017279405689495396e-03
5.060000000000000053e-01 -4.405141903259024438e-03
5.062499999999999778e-01 -3.798290619056358432e-03
5.064999999999999503e-01 -4.370967216927410838e-03
5.067500000000000338e-01 -5.565941534886569529e-03
5.070000000000000062e-01 -6.859156455585476396e-03
5.072499999999999787e-01 -8.485072393409827038e-03
5.074999999999999512e-01 -1.087589346522998754e-02
5.077500000000000346e-01 -1.338859248035387250e-02
5.080000000000000071e-01 -1.436716988498893538e-02
5.082499999999999796e-01 -1.281858506955735506e-02
5.084999999999999520e-01 -9.436609819174492444e-03
5.087500000000000355e-01 -5.612960580344167859e-03
5.090000000000000080e-01 -1.808591015624469835e-03
5.092499999999999805e-01 2.708319145475991327e-03
5.094999999999999529e-01 8.265169883318584237e-03
5.097500000000000364e-01 1.315056931544875823e-02
5.100000000000000089e-01 1.462969980333926612e-02
5.102499999999999813e-01 1.196336165606956201e-02
5.104999999999999538e-01 7.336020779963564609e-03
5.107500000000000373e-01 3.415973789599173471e-03
5.110000000000000098e-01 1.024264654729086475e-03
5.112499999999999822e-01 -5.030380275872529342e-04
5.114999999999999547e-01 -1.628401509106104520e-03
5.117500000000000382e-01 -1.944369506884342270e-03
5.120000000000000107e-01 -8.013714585206313436e-04
5.122499999999999831e-01 1.996216816268458951e-03
5.124999999999999556e-01 5.812344231892112821e-03
5.127500000000000391e-01 8.889128822142251460e-03
5.130000000000000115e-01 9.098321560104427608e-03
5.132499999999999840e-01 5.921624311608249085e-03
5.134999999999999565e-01 1.137454989120664913e-03
5.137500000000000400e-01 -3.200876784983211314e-03
5.140000000000000124e-01 -6.987028935800417354e-03
5.142499999999999849e-01 -1.156042096235605603e-02
5.144999999999999574e-01 -1.696593722611077285e-02
5.147500000000000409e-01 -2.045671069665676994e-02
5.150000000000000133e-01 -1.874387803598346822e-02
5.152499999999999858e-01 -1.169420725562609828e-02
5.154999999999999583e-01 -2.905683482277121067e-03
5.157500000000000417e-01 3.423245388601375578e-03
5.160000000000000142e-01 5.705319837713755497e-03
5.162499999999999867e-01 5.260515945901783445e-03
5.164999999999999591e-01 4.057494370042738670e-03
5.167500000000000426e-01 2.863091153936270748e-03
5.170000000000000151e-01 1.745513665521483595e-03
5.172499999999999876e-01 1.167893893215280095e-03
5.174999999999999600e-01 1.451612748453596970e-03
5.177500000000000435e-01 1.919891838415342970e-03
5.180000000000000160e-01 1.721385058834888539e-03
5.182499999999999885e-01 9.826560568735127812e-04
5.184999999999999609e-01 4.133074093008410688e-04
5.187500000000000444e-01 5.193579032606863207e-04
5.190000000000000169e-01 1.702649455701872377e-03
5.192499999999999893e-01 4.229622489790671284e-03
5.194999999999999618e-01 7.694940143152601691e-03
5.197500000000000453e-01 1.125727681366673304e-02
5.200000000000000178e-01 1.457942974684047280e-02
5.202499999999999902e-01 1.782098941704336054e-02
5.204999999999999627e-01 2.052623539598439489e-02
5.207500000000000462e-01 2.124653090659614496e-02
5.210000000000000187e-01 1.879963814203344796e-02
5.212499999999999911e-01 1.368617125577647163e-02
5.214999999999999636e-01 7.940106875206208448e-03
5.217500000000000471e-01 3.628092033223754773e-03
5.220000000000000195e-01 1.565247478465599251e-03
5.222499999999999920e-01 1.282456455827468396e-03
5.224999999999999645e-01 1.857296629564846036e-03
5.227500000000000480e-01 2.676342227175734344e-03
5.230000000000000204e-01 3.772369920367865496e-03
5.232499999999999929e-01 5.557541808388508087e-03
5.234999999999999654e-01 7.938769236957110217e-03
5.237500000000000488e-01 9.959960172067138656e-03
5.240000000000000213e-01 1.084067017470594085e-02
5.242499999999999938e-01 1.088272194359370636e-02
5.244999999999999662e-01 1.063909555293802989e-02
5.247500000000000497e-01 9.829242079864863174e-03
5.250000000000000222e-01 8.098684040499463249e-03
5.252499999999999947e-01 6.349761969395847222e-03
5.254999999999999671e-01 6.154948225470799512e-03
5.257500000000000506e-01 8.108657702246791985e-03
5.260000000000000231e-01 1.165084272114438359e-02
5.262499999999999956e-01 1.595609667980893431e-02
5.264999999999999680e-01 1.986981093339956067e-02
5.267500000000000515e-01 2.139861707053706055e-02
5.270000000000000240e-01 1.858734707771925870e-02
5.272499999999999964e-01 1.124840988361481414e-02
5.274999999999999689e-01 1.398125720194444291e-03
5.277500000000000524e-01 -8.198127861477505149e-03
5.280000000000000249e-01 -1.604964160372103835e-02
5.282499999999999973e-01 -2.267931181331258456e-02
5.284999999999999698e-01 -2.909587928287589095e-02
5.287500000000000533e-01 -3.461013874526881751e-02
5.290000000000000258e-01 -3.698891785874931087e-02
5.292499999999999982e-01 -3.493063741764689673e-02
5.294999999999999707e-01 -2.959813117708455857e-02
5.297500000000000542e-01 -2.350044842291541813e-02
5.300000000000000266e-01 -1.838001357659196228e-02
5.302499999999999991e-01 -1.427351158026857192e-02
5.304999999999999716e-01 -1.015795050183902586e-02
5.307500000000000551e-01 -5.170031160318455839e-03
5.310000000000000275e-01 5.727722197637575771e-04
5.312500000000000000e-01 5.692044436212807465e-03
5.314999999999999725e-01 7.443034677389752211e-03
5.317499999999999449e-01 1.600293185760724973e-03
5.320000000000000284e-01 -1.658346112716614987e-02
5.322500000000000009e-01 -4.826456130141609097e-02
5.324999999999999734e-01 -8.504049461514194552e-02
5.327499999999999458e-01 -1.091630351166710117e-01
5.330000000000000293e-01 -1.055301802274135892e-01
5.332500000000000018e-01 -7.468195748490231989e-02
5.334999999999999742e-01 -3.029547108116803153e-02
5.337499999999999467e-01 1.453107067342009409e-02
5.340000000000000302e-01 5.302019409994763316e-02
5.342500000000000027e-01 7.961765602387402274e-02
5.344999999999999751e-01 8.843363006162147100e-02
5.347499999999999476e-01 7.940636324977708160e-02
5.350000000000000311e-01 6.079130670852433971e-02
5.352500000000000036e-01 4.259731499460937126e-02
5.354999999999999760e-01 2.951101674770951686e-02
5.357499999999999485e-01 2.077630157292239405e-02
5.360000000000000320e-01 1.442382825976816149e-02
5.362500000000000044e-01 9.877579375972196998e-03
5.364999999999999769e-01 7.212121967896902540e-03
5.367499999999999494e-01 5.735075548603239294e-03
5.370000000000000329e-01 4.406279785233329672e-03
5.372500000000000053e-01 3.222613076697886797e-03
5.374999999999999778e-01 3.129005467448299493e-03
5.377499999999999503e-01 4.395206915050680653e-03
5.380000000000000338e-01 5.838336918871712619e-03
5.382500000000000062e-01 5.915483578360223454e-03
5.384999999999999787e-01 4.174040002052208619e-03
5.387499999999999512e-01 1.564235117635447364e-03
5.390000000000000346e-01 -5.693017085327040008e-04
5.392500000000000071e-01 -1.809021711510822115e-03
5.394999999999999796e-01 -2.574644971325850112e-03
5.397499999999999520e-01 -2.979902565104082870e-03
5.400000000000000355e-01 -3.399781846632949668e-03
5.402500000000000080e-01 -5.778120869761521790e-03
5.404999999999999805e-01 -1.087965718603526276e-02
5.407499999999999529e-01 -1.446028155917633042e-02
5.410000000000000364e-01 -1.251207591433080822e-02
5.412500000000000089e-01 -1.197976522244489916e-02
5.414999999999999813e-01 -2.798251631655842425e-02
5.417499999999999538e-01 -6.437484687364959657e-02
5.420000000000000373e-01 -1.012014251480597982e-01
5.422500000000000098e-01 -1.082273204012302037e-01
5.424999999999999822e-01 -7.346163757292881180e-02
5.427499999999999547e-01 -1.581842064056735581e-02
5.430000000000000382e-01 3.342263773965746532e-02
5.432500000000000107e-01 5.816898183910989423e-02
5.434999999999999831e-01 6.318982765498604159e-02
5.437499999999999556e-01 5.970665591934766481e-02
5.440000000000000391e-01 5.389570617024819904e-02
5.442500000000000115e-01 4.710506245924749730e-02
5.444999999999999840e-01 4.018306425234833418e-02
5.447499999999999565e-01 3.500677307041340919e-02
5.450000000000000400e-01 3.296057043075702880e-02
5.452500000000000124e-01 3.337544728124643145e-02
5.454999999999999849e-01 3.412360305520013154e-02
5.457499999999999574e-01 3.357662074400580982e-02
5.460000000000000409e-01 3.158443174358495364e-02
5.462500000000000133e-01 2.881069720063827652e-02
5.464999999999999858e-01 2.590357665878248797e-02
5.467499999999999583e-01 2.372794572410427683e-02
5.470000000000000417e-01 2.361001139639680793e-02
5.472500000000000142e-01 2.543864294845890606e-02
5.474999999999999867e-01 2.563499379934799927e-02
5.477499999999999591e-01 2.188259683540412850e-02
5.480000000000000426e-01 2.285759133930702000e-02
5.482500000000000151e-01 4.360472002544603376e-02
5.484999999999999876e-01 7.773970957806278226e-02
5.487499999999999600e-01 8.392999146005335198e-02
5.490000000000000435e-01 2.776737699661571343e-02
5.492500000000000160e-01 -6.454965269857565469e-02
5.494999999999999885e-01 -1.269905086815137640e-01
5.497499999999999609e-01 -1.296405149089019659e-01
5.500000000000000444e-01 -1.021222506640442756e-01
5.502500000000000169e-01 -8.292613869669525350e-02
5.504999999999999893e-01 -7.852009126845764519e-02
5.507499999999999618e-01 -7.566839980016815126e-02
5.510000000000000453e-01 -6.758744456711289483e-02
5.512500000000000178e-01 -5.779307020985259558e-02
5.514999999999999902e-01 -5.039577209769421223e-02
5.517499999999999627e-01 -4.582167321683894290e-02
5.520000000000000462e-01 -4.371413788054225730e-02
5.522500000000000187e-01 -4.572594831802968829e-02
5.524999999999999911e-01 -5.479051745178491195e-02
5.527499999999999636e-01 -7.133350110533956401e-02
5.530000000000000471e-01 -8.831037287565497718e-02
5.532500000000000195e-01 -9.076138400147931717e-02
5.534999999999999920e-01 -6.548615160636350740e-02
5.537499999999999645e-01 -1.427339283587735624e-02
5.540000000000000480e-01 4.424128166968801373e-02
5.542500000000000204e-01 8.718043611418793692e-02
5.544999999999999929e-01 1.029580173170765584e-01
5.547499999999999654e-01 9.758505805118712628e-02
5.550000000000000488e-01 8.692731552642715687e-02
5.552500000000000213e-01 8.199938865632588891e-02
5.554999999999999938e-01 8.217731033063314927e-02
5.557499999999999662e-01 8.128480236360022260e-02
5.560000000000000497e-01 7.638286527751329824e-02
5.562500000000000222e-01 6.939159930196640846e-02
5.564999999999999947e-01 6.306002951931741207e-02
5.567499999999999671e-01 5.846545593573632821e-02
5.570000000000000506e-01 5.574068864235418724e-02
5.572500000000000231e-01 5.412525415824512992e-02
5.574999999999999956e-01 5.151392079060869433e-02
5.577499999999999680e-01 4.780839949616413898e-02
5.580000000000000515e-01 4.888854939593547527e-02
5.582500000000000240e-01 6.061469241789656931e-02
5.584999999999999964e-01 7.471411505273445330e-02
5.587499999999999689e-01 6.989336203922584534e-02
5.590000000000000524e-01 3.955445671710468292e-02
5.592500000000000249e-01 1.147691950838837169e-02
5.594999999999999973e-01 2.342794572957694610e-02
5.597499999999999698e-01 8.048859137016511900e-02
5.600000000000000533e-01 1.408246696768947204e-01
5.602500000000000258e-01 1.396777182604475587e-01
5.604999999999999982e-01 4.376723291345146344e-02
5.607499999999999707e-01 -1.025283378130845829e-01
5.610000000000000542e-01 -2.079842565532965815e-01
5.612500000000000266e-01 -2.237395400111683308e-01
5.614999999999999991e-01 -1.790561794646600424e-01
5.617499999999999716e-01 -1.304633310572889393e-01
5.620000000000000551e-01 -1.052662435693774434e-01
5.622500000000000275e-01 -9.717340400501627007e-02
5.625000000000000000e-01 -9.235270631650639717e-02
5.627499999999999725e-01 -8.583978478898106335e-02
5.629999999999999449e-01 -7.919592190610291738e-02
5.632500000000000284e-01 -7.364258121623550035e-02
5.635000000000000009e-01 -6.854000069483667801e-02
5.637499999999999734e-01 -6.289965258474727872e-02
5.639999999999999458e-01 -5.616039016971579451e-02
5.642500000000000293e-01 -4.837516861541815705e-02
5.645000000000000018e-01 -4.023703235204938861e-02
5.647499999999999742e-01 -3.244917099674932831e-02
5.649999999999999467e-01 -2.514130891681922927e-02
5.652500000000000302e-01 -1.833111686423411282e-02
5.655000000000000027e-01 -1.259950044322533796e-02
5.657499999999999751e-01 -8.755267385394428781e-03
5.659999999999999476e-01 -6.982063270995127538e-03
5.662500000000000311e-01 -6.687461925422208929e-03
5.665000000000000036e-01 -7.082652268178465590e-03
5.667499999999999760e-01 -7.392500145777653603e-03
5.669999999999999485e-01 -6.343730043305674700e-03
5.672500000000000320e-01 -2.326804300942946369e-03
5.675000000000000044e-01 4.812943839604313240e-03
5.677499999999999769e-01 1.240318557774565573e-02
5.679999999999999494e-01 1.682713324733133009e-02
5.682500000000000329e-01 1.725983992907293915e-02
5.685000000000000053e-01 1.637965927132494295e-02
5.687499999999999778e-01 1.690334972159119459e-02
5.689999999999999503e-01 1.874446248792217481e-02
5.692500000000000338e-01 2.035753377853598972e-02
5.695000000000000062e-01 2.152478153693800772e-02
5.697499999999999787e-01 2.345810637023922757e-02
5.699999999999999512e-01 2.707422356097534052e-02
5.702500000000000346e-01 3.296289836833392328e-02
5.705000000000000071e-01 4.260483694043423752e-02
5.707499999999999796e-01 5.715065932875708354e-02
5.709999999999999520e-01 7.454300728740795301e-02
5.712500000000000355e-01 9.155740438015977367e-02
5.715000000000000080e-01 1.118446068626179346e-01
5.717499999999999805e-01 1.467119849236409312e-01
5.719999999999999529e-01 1.973474516177730065e-01
5.722500000000000364e-01 2.370925557763568503e-01
5.725000000000000089e-01 2.257388156922303102e-01
5.727499999999999813e-01 1.474543088216488107e-01
5.729999999999999538e-01 2.926938838821599442e-02
5.732500000000000373e-01 -7.602736969006435030e-02
5.735000000000000098e-01 -1.233943687458615990e-01
5.737499999999999822e-01 -1.029994378113038289e-01
5.739999999999999547e-01 -4.247255097752005576e-02
5.742500000000000382e-01 1.899255227564040915e-02
5.745000000000000107e-01 5.786239353599036128e-02
5.747499999999999831e-01 7.062215299108236255e-02
5.749999999999999556e-01 6.306843041106269254e-02
5.752500000000000391e-01 4.285199697991912138e-02
5.755000000000000115e-01 1.780352832018827422e-02
5.757499999999999840e-01 -5.876844684786447157e-03
5.759999999999999565e-01 -2.550728335960474047e-02
5.762500000000000400e-01 -4.113713689624197423e-02
5.765000000000000124e-01 -5.334696049045876270e-02
5.767499999999999849e-01 -6.222834408807189494e-02
5.769999999999999574e-01 -6.780403851059943476e-02
5.772500000000000409e-01 -7.074830696153298903e-02
5.775000000000000133e-01 -7.244744211494577590e-02
5.777499999999999858e-01 -7.413800614616086748e-02
5.779999999999999583e-01 -7.598802436853979714e-02
5.782500000000000417e-01 -7.732276302129865997e-02
5.785000000000000142e-01 -7.766295758336677624e-02
5.787499999999999867e-01 -7.705243729436743461e-02
5.789999999999999591e-01 -7.539542068089871707e-02
5.792500000000000426e-01 -7.212986943620332270e-02
5.795000000000000151e-01 -6.694187921025758492e-02
5.797499999999999876e-01 -6.039925746190432515e-02
5.799999999999999600e-01 -5.325464189990560676e-02
5.802500000000000435e-01 -4.537949987430547200e-02
5.805000000000000160e-01 -3.630447411256355894e-02
5.807499999999999885e-01 -2.666307827560536123e-02
5.809999999999999609e-01 -1.787662609511973463e-02
5.812500000000000444e-01 -1.035615243230058637e-02
5.815000000000000169e-01 -3.374569519676215695e-03
5.817499999999999893e-01 2.989710484200155689e-03
5.819999999999999618e-01 7.191946620557812010e-03
5.822500000000000453e-01 8.307539731720657225e-03
5.825000000000000178e-01 7.896546949231158033e-03
5.827499999999999902e-01 8.785229715045366969e-03
